Atriatix v1.000
62
0.130252242173064
0.815208333333338
18.7291673900463
0.059184027777766
13.4946533203125
170
161
173
47
0.2
2
1
0.443326123
0.596627390012145
-0.453045072
0.153733783401549
-0.356490346
-0.227324109524488
0.324336026
-0.366245874203742
0.546295005
-0.514432279393077
-0.688645085
0.820319135673344
0.429832259
0.123611882328987
-0.062650427
-0.200916451402009
-0.082780689
-0.723581047728658
0.020978353
0.516366467811167
0.505188396
0.753333698958158
-0.262616936
0.989966793917119
-0.506816764
0.603820824995637
0.595117691
0.568806779570878
0.156576814
-0.64144616574049
-0.483407281
0.710153709165752
-0.492220231
0.209957024082541
0.615785106
0.243169703520834
0.488989425357431
-0.649049397557974
-0.233036141376942
0.587539649568498
-0.0596705642528832
-0.80935106985271
-0.441818749066442
0.895927255041897
0.187130057718605
-0.334238111972809
0.723279655445367
-0.410990771837533
0.590099051129073
-0.633550630882382
0.646164006087929
-0.748162417672574
-0.0978667982853949
0.695378895848989
0.0310898837633431
0.360280065797269
0.775520469527692
-0.221263637766242
-0.667282772716135
-0.193711283616722
0.263282762374729
0.347939901053905
-0.960320330690593
0.690746541135013
0.65840933425352
-0.689193123951554
0.405419497285038
0.352642321027815
-0.485269191209227
0.230923999100924
-0.279961760621518
0.103323540650308
0.193183827679604
-0.566029427573085
-0.28308712458238
0.634577442891896
0.777216324117035
-0.040255144238472
0.207827672827989
-0.430709791369736
-0.298916578758508
-0.921356441453099
0.540371647570282
0.123434261418879
0.93478395557031
-0.408655542880297
0.97135165007785
0.348133697174489
0.0693876254372299
-0.369557863101363
0.549971076194197
0.920557838864625
-0.853497235570103
0.182786859571934
-0.395475796889514
-0.0476070838049054
0.575634739827365
0.0512765552848577
-0.573643849696964
-0.215358129702508
0.983184976037592
0.474851939827204
0.244838465470821
-0.762497716583312
0.336840603034943
0.125444756820798
-0.912889664527029
-0.71592756640166
0.189104729797691
-0.299370855093002
-0.383664577733725
0.61663547437638
-0.616282657254487
-0.169273870065808
0.542224323842674
0.0742717394605279
0.0687168291769922
0.5191112421453
-0.30242733983323
-0.59945082757622
-0.640107874
1.00001
0
0
1
0.834475258
-0.625435216
1
0
0
0
1
0
0
0
0
