Atriatix v1.000
62
0.174688324657273
0.236530615234393
13.5936530097114
0.0017099717882072
10.019551767646
170
161
169
47
0.15
2
1
-0.459868055
0.97385642118752
0.910818438
-0.579763154499233
-0.495078704
-0.810940489172935
0.277099923
-0.627103668637574
-0.7759116
-0.687709720805287
-0.729535618
-0.0730564137920737
0.436308851
0.112610291689634
-0.38536239
0.593097432516515
0.65562598
0.462482297793031
-0.316836176
0.795231294818222
0.282168628
0.266359098255634
0.017349996
-0.164905120618641
0.300759546
0.328725537285209
-0.458524184
0.343363978900015
-0.588835584
-0.619656380265951
-0.430980723
0.685768402181566
-0.0662685
0.981450753286481
-0.806352114
0.293048028834164
0.334171914961189
-0.479338884353638
0.158725500572473
0.383486988954246
0.711230530869216
-0.971679853275418
-0.200915211346
-0.953224032185972
0.090997492428869
-0.976937834173441
-0.851184684317559
0.157952635549009
0.871610369067639
0.110321113839746
-0.191182745154947
0.0901702018454671
0.262096927966923
0.551544420421124
-0.332129276823252
0.695044095627964
-0.940891467500478
-0.477140003815293
0.0709707424975932
-0.48067323025316
0.605294165667146
-0.71805365011096
-0.471322174649686
0.72666063066572
-0.726934921462089
0.9618558306247
-0.438765814062208
0.693159093149006
0.317500063683838
-0.789459004998207
0.771195576060563
0.745565759949386
-0.557858646381646
-0.605165900662541
-0.261671253945678
0.0107417264953256
0.921431144233793
-0.412370283156633
-0.169475469272584
-0.154768989421427
-0.376461256761104
0.0570204798132181
-0.475523439701647
-0.186345892958343
0.777328343596309
-0.523864053189754
0.329875596333295
-0.315320332534611
-0.172782578039914
-0.427565405145287
0.91086949268356
0.41332430485636
-0.780324237886816
0.435198936611414
0.498538781423122
-0.421669476665556
-0.534884896595031
-0.800016237422824
-0.811862116213888
-0.756627227179706
0.318919414188713
-0.671232491731644
-0.785148053895682
0.710841628722846
0.425365790259093
0.204556746408343
-0.198180699255317
-0.863043903373182
0.268185978289694
-0.740806195884943
0.674169552046806
-0.523045958019793
-0.228481475729495
-0.646882494911551
-0.167172712739557
-0.270889255218208
0.395001546945423
0.625827036798
-0.318168587516993
-0.0536644207313657
0.066756136
1.000000001
0
0
0
0.535798943
0.102920114
1
0
0
0
1
0
0
0
0
