Atriatix v1.000
62
0.14419159990403
0.719527567545579
16.9017000025996
0.287048231336799
12.4236775576274
170
165
166
50
0.06
2
1
-0.497827659
0.538485359400511
0.101801035
-0.807145015336573
0.349115889
-0.221557414159179
-0.619481025
-0.755224394612014
0.218732954
-0.231605403125286
-0.501403175
-0.528324295766652
-0.489602931
0.885580142959952
-0.255916195
0.823078730143607
-0.981887805
0.831952635198832
0.78641494
0.944499648176134
-0.038847622
0.162378387525678
-0.807597732
-0.867599005810916
0.633842015
0.908537983894348
-0.579258322
0.681727054528892
0.018226757
0.0172807704657316
-0.111214632
-0.405233829282224
-0.79661497
-0.177817527204752
0.205329936
-0.879908830858767
-0.0448698145337403
0.267055938020349
-0.836829913314432
0.0903279157355428
0.279853270854801
0.100165002048016
-0.414832032751292
-0.472498004324734
-0.673743568826467
0.757891481742263
0.617588131222874
0.484713518060744
0.468726930674165
-0.843394707888365
0.56444812240079
0.5928900456056
-0.083898198325187
0.111487688496709
-0.143365313764662
-0.718632350675762
0.689573117997497
-0.398942366242409
0.249535605777055
0.141050088219345
0.313483893405646
0.596151290461421
0.842937162611634
-0.601103886030614
-0.937235394958407
-0.327895361930132
0.0169372227974236
-0.0275150993838906
0.110760341864079
-0.877110784873366
0.877623947802931
-0.926590400747955
-0.57880142191425
-0.20404901355505
0.306270130444318
-0.171750982291996
-0.271952428389341
0.366502335295081
0.205793155822903
-0.114132574759424
-0.552984612528235
-0.729982819408178
0.0382305872626603
0.479792482219636
-0.137560453731567
0.0116792190819979
0.246981377247721
-0.0855787051841617
0.433317297603935
-0.928466707468033
0.657562703359872
-0.0561954053118825
0.562226518522948
0.124089879915118
0.450632429216057
0.0117590436711907
0.670887236949056
0.791132714599371
0.801027190405875
0.822057663463056
-0.0738862198777497
0.646479526534677
-0.223433894570917
-0.792551609687507
0.459907548036426
-0.308554090559483
-0.409629888366908
0.766250754706562
0.427440411876887
-0.980237687006593
0.800446926150471
-0.764719313941896
0.746678737457842
-0.109305839985609
0.550291631836444
0.0678534423932433
0.863398033659905
-0.0708849113434553
0.444252888206393
0.185614665038884
-0.614661774
1.0001
0
0
1
-0.32871668
0.151414767
1
0
0
1
1
0
0
0
1
