Atriatix v1.000
62
0.0623478470001695
0.298502604166668
37.7229437934028
-0.0871961805555621
27.9811347113715
66
166
100
50
0.19
2
1
0.699488451
0.699809562414885
0.719640311
0.0256426772102714
0.668510895
-0.659799670800567
0.950721266
-0.409645068459213
0.856968941
-0.301228694617748
-0.216035746
0.753432284109294
0.631277136
-0.762033680453897
-0.816556112
0.0945251369848847
0.18607421
0.912912610918283
-0.665535669
-0.911505841650069
-0.862637278
-0.487880928441882
-0.777949487
-0.627133662812412
0.734789336
0.0938776135444641
-0.312045037
0.407869162969291
0.036815717
0.237117661163211
-0.440069729
0.497792930342257
0.892530059
0.325463768094778
-0.052982825
0.642431168816984
-0.926150773186237
0.583246359601617
0.29459826881066
-0.812650802545249
-0.59813846508041
0.0822155997157097
0.292967342305928
-0.258269195444882
-0.788939856458455
-0.56229161657393
0.233164338860661
-0.667446947656572
0.995217082556337
-0.586981546133757
0.903825942892581
0.263839206658304
-0.421352100092918
0.150719644501805
0.622801790479571
-0.350260208360851
-0.343383064959198
0.249692246317863
-0.502713694702834
-0.90980823058635
0.0486332173459232
-0.593397499993443
-0.493783840443939
-0.542094155214727
-0.491613010410219
0.840585213154554
-0.501316640060395
0.265431894920766
-0.565923143643886
0.219879502430558
0.702113958541304
-0.418947475962341
-0.67712244251743
0.3091676607728
0.83396238880232
0.962254743091762
-0.686701633501798
-0.943632850423455
-0.589328573551029
0.375529774464667
0.659182114060968
-0.662374284118414
-0.652352224569768
0.571250981651247
-0.520905163604766
-0.920730365440249
0.444003278855234
0.882379923947155
-0.375143951270729
0.975455075502396
0.845811754930764
0.915750536136329
-0.987040356267244
-0.47972740419209
-0.918368542101234
-0.895318566821516
0.262635414954275
-0.426945243030787
-0.235956836026162
-0.408333660103381
0.984301205258816
-0.824363132938743
0.550953882280737
-0.590107354335487
-0.437844319734722
-0.159679152071476
0.460416190791875
0.432338084094226
0.774661726783961
0.0272922273725271
0.13271319726482
-0.942804462276399
0.0966704762540758
0.0302402563393116
-0.866540874820203
-0.90162403229624
0.026935953181237
0.988931151106954
-0.108534475322813
-0.150160531513393
0.284770349
1
0
0
1
-0.75251554
0.365123108
1
0
0
1
1
0
0
0
1
