Atriatix v1.000
62
0.0301412872841444
1.75
79.1631944444444
2.04166666666666
60.1015625
66
95
-61
50
0.04
2
1
-0.953623088
-0.928349412046373
-0.7566219
0.354690242558718
-0.195981618
0.161468884907663
0.237633693
0.237335624173284
-0.298183253
-0.288010130636394
0.491243789
0.977208837866783
-0.405719116
0.309722769074142
0.006578743
-0.564717235043645
-0.468119332
0.435044304467738
-0.174341122
-0.477657396346331
0.071960059
-0.608235881663859
0.552981626
0.188121611252427
-0.900584189
-0.214481669478118
0.622489305
0.131139971315861
0.250891813
0.0197412176057696
0.652427516
0.947996785864234
-0.463760959
-0.222034982405603
0.73184417
0.940865192562342
-0.74900884507224
-0.0388021403923631
-0.0175208714790642
0.30194060690701
0.773605699185282
-0.950870181433856
0.239794486667961
0.893592089414597
0.341220945585519
0.353917094878852
0.196895464789122
0.34296683780849
0.397678351495415
-0.86470568086952
0.855091934558004
0.66979780420661
-0.392439353745431
-0.954235018230975
-0.375149433035403
0.166164437308908
-0.870004457887262
-0.125380012206733
0.920887605752796
-0.253043450415134
-0.754024929832667
-0.940465663559735
-0.404847734142095
-0.510208690539002
0.932940541300923
-0.0655080741271377
0.0514507568441331
-0.416866641491652
-0.519616867881268
0.182788482867181
0.385460931342095
0.401368053629994
-0.259789904113859
0.463862617500126
-0.606112441513687
0.925577834248543
-0.894373401533812
-0.317294997163117
0.796508222352713
-0.771228285506368
0.812283179257065
-0.129404320381582
-0.485140154603869
-0.755682099610567
0.655438837129623
0.14591948594898
-0.648684163112193
0.536329532042146
0.716889741364866
-0.276190388016403
-0.087696133647114
0.290753550827503
0.195413567591459
0.443369279615581
-0.880585737992078
-0.754087308421731
-0.0655205412767828
-0.218778452835977
0.152149034198374
-0.218749400228262
-0.259026389103383
-0.179862760938704
0.166061523836106
0.883030073717237
0.0886904844082892
0.141491000540555
0.630036675836891
-0.794265568256378
0.30033963965252
-0.889704522676766
-0.373538062442094
-0.0520779956132174
-0.198181801941246
0.521563620306551
0.958038782235235
-0.238716248422861
-0.45750107197091
-0.923250884748995
-0.595015142578632
0.411654004827142
-0.824716044
1.0101001
0
0
1
0.659014937
-0.023623242
1
0
0
1
1
0
0
0
1
