Atriatix v1.000
70
0.476777653530708
-0.0482439959490444
4.84572139033568
0.220719762731469
3.89119380244501
141
157
174
53
0.1
2
1
0.940054178
0.0733020287007093
0.512687436
-0.0198696097359061
-0.806149463
0.764607053250074
-0.772686932
0.576182975433767
0.950844954
-0.25621653161943
0.646951171
0.0568255009129643
-0.915322988
0.15783778578043
-0.099322728
0.537650446407497
0.024383328
0.907324185594916
0.768117739
0.801067003048956
0.603396577
0.266339633613825
0.654425372
-0.453820996917784
0.183935139
-0.120527876541018
-0.549979394
0.0624909745529294
-0.099466628
0.354452043771744
0.368848354
0.796192320995033
-0.633537487
0.1692566704005
-0.641099536
0.777769626118243
-0.313207800034434
0.112417783588171
0.178753804881126
-0.620302916504443
0.121842618566006
-0.0247175898402929
0.733873980585486
0.372955051250756
0.244777278508991
0.714976690709591
0.76643466250971
0.751126731745899
-0.0629135896451771
-0.193177128210664
-0.507597447838634
-0.709177023731172
0.065710989292711
0.00495942309498787
0.279637966770679
0.317185214720666
-0.814442616421729
0.229914279654622
-0.0392389497719705
0.643216510303319
0.111152627971023
-0.198118790984154
0.874533609021455
0.15169073920697
0.701190322171897
-0.261550696566701
0.229506573174149
0.988389895297587
-0.300282845739275
-0.66446440294385
-0.11631691781804
0.835419519804418
0.977710049133748
0.750270808115602
0.133947195950896
0.233352256007493
0.0187939419411123
0.804588206112385
-0.390991769265383
0.420949528925121
0.992850176524371
-0.271734395995736
-0.140389279928058
0.661211350001395
-0.738734471146017
-0.939829524606466
-0.260239999275655
0.522504246793687
0.657571855466813
-0.57354180328548
-0.827286576386541
-0.916482682339847
-0.612773633096367
-0.585526585578918
0.395487189758569
-0.469203588552773
0.890282526146621
-0.738895462825894
-0.724371188785881
0.117606432177126
0.51070157205686
-0.425658646970987
-0.205994802992791
0.952871768735349
-0.683945332188159
-0.193214228376746
-0.712643635924906
0.588944849558175
0.91136567434296
-0.300134308636188
0.544364773202687
0.876952822320163
-0.40915545122698
-0.582498008385301
-0.651009710039943
-0.941527641378343
0.671261367853731
0.587978649884462
0.564820770639926
0.562282583676279
0.350710976
1
0
0
0
0.972765984
0.354188273
1
0
0
1
1
0
0
0
1
