Atriatix v1.000
62
0.100104275286757
-0.583333333333329
22.7256944444444
0.874999999999986
18.3567708333333
170
161
113
47
0.15
2
1
-0.410925891
0.986741415224969
0.457715828
0.775093706324697
0.421094219
-0.32043747138232
-0.721216402
-0.867959544062614
0.797851816
-0.806608361192048
0.347744137
0.723964957520366
-0.266682246
-0.548889650963247
-0.955857823
0.774274479597807
0.472946343
-0.17791994009167
-0.574766059
-0.87850377522409
-0.529395936
0.381785524077713
0.399204911
0.460366196930408
0.469013907
0.689056525938213
-0.513721772
0.522371193394065
0.277465327
-0.95038231369108
-0.988536286
0.414493922144175
-0.659460168
-0.265283607877791
0.072697524
-0.165088756009936
0.691602195147425
0.123578851111233
0.128122413065284
0.38439553976059
-0.615192710887641
0.238444271497428
0.546258642803878
0.692169202491641
0.999372547958046
-0.359072833321989
0.962815498467535
-0.425037745386362
0.309866052586585
-0.84154221508652
-0.212106559891254
-0.0519769098609686
-0.283739758189768
-0.590449335984886
0.707326875533909
0.706832341849804
-0.4724987517111
0.596651311032474
-0.478082441259176
0.298269873484969
0.692343859467655
0.535311006940901
0.168308613356203
0.199984896928072
-0.928797896485776
0.388439736329019
-0.734750818926841
-0.973280785605311
0.842765460256487
0.0743872420862317
-0.971000304911286
0.482333585619926
-0.860869302880019
-0.182397794909775
0.901627778541297
0.876287220045924
0.503199330065399
0.810619548894465
0.73594476794824
0.423320394009352
0.262090709526092
0.4561258694157
0.880832861643285
-0.95490980707109
0.410320731345564
0.15785298962146
-0.989287106785923
-0.107490621507168
0.0964961727149785
0.129049639217556
0.0429027299396694
0.307538380846381
-0.692725346889347
0.187281259335577
-0.0133837037719786
0.443180415779352
0.842340220231563
0.00430793222039938
-0.932646777946502
0.260429726913571
0.174144560936838
0.779790435917676
-0.0295708836056292
0.120922952890396
-0.713836162816733
0.807574423961341
-0.452603534329683
0.694043619558215
-0.916578853037208
-0.0966972699388862
0.829106157179922
0.397229757159948
-0.530975389759988
0.162105797789991
0.689159627538174
-0.911765357479453
0.680471079889685
-0.984879764728248
-0.998498363886029
-0.771909333765507
-0.020534522
1.00001
0
0
1
-0.946414505
-0.364096337
1
0
0
0
1
0
0
0
0
