Atriatix v1.000
62
0.100104275286757
-0.583333333333329
22.7256944444444
0.874999999999986
18.3567708333333
170
161
113
47
0.15
2
1
-0.975796929
-0.441673949360847
0.393970952
-0.658806872554123
0.141530633
0.0605427008122206
-0.276817211
-0.720932885073125
0.295833965
-0.813976783305407
-0.733110997
-0.688461766578257
-0.310000826
0.626444214954972
0.369703146
0.0928265871480107
0.750888498
-0.20507451146841
-0.008732847
-0.608643312938511
0.671698711
-0.0871780011802912
0.015211298
-0.990442744456232
-0.114039856
-0.245281007140875
0.849129785
-0.841260843910277
-0.183073666
-0.229619754478335
0.909321959
0.257801447995007
-0.253895706
-0.197600573301315
0.084049136
0.624515566043556
-0.855324581731111
0.118304593488574
-0.230942928697914
-0.971862374804914
0.311557000037283
-0.0241341926157475
0.569114041049033
-0.427901149727404
0.661854382138699
0.440355876460671
-0.740685445722193
0.875524130649865
0.509453730192035
0.672514222562313
-0.90010131103918
0.0223286999389529
0.687505431007594
-0.594036126509309
0.0983370528556407
0.246642940677702
0.850548116024584
-0.167168419808149
0.312431369442493
-0.176684685982764
-0.19797669025138
0.616321058943868
-0.211819311138242
0.132243414409459
-0.309069296810776
0.24898935854435
-0.773836776148528
-0.634716850705445
0.421374052297324
0.475476352497935
-0.02981618931517
0.844486043788493
-0.881252298597246
0.998437356203794
0.411936995107681
-0.579585329629481
-0.00368626834824681
0.186428869143128
0.40543574327603
-0.0807137964293361
0.465919734444469
-0.997502557933331
-0.21504422230646
0.107694099657238
-0.163392790127546
-0.127778330817819
-0.419754461850971
-0.856342098675668
-0.555139409843832
0.709957305341959
-0.977248232346028
0.98275116737932
-0.439753111917526
0.822035508230329
-0.0633892766200006
0.708057527430356
0.910195970442146
-0.0943357944488525
0.608155012596399
0.252704861573875
-0.83232854353264
-0.137717412784696
-0.272313946392387
0.483727605082095
-0.754517758730799
-0.355881277471781
-0.502737838309258
-0.883992821909487
0.740984644275159
-0.147299697622657
-0.501747739966959
0.425040540285409
0.37492518266663
0.308068506419659
-0.587594784330577
-0.772713129408658
-0.231826030183583
0.307444995269179
-0.809815199580044
0.0968423718586564
-0.599901261
1.00001
0
0
0
-0.207897972
-0.239879723
1
0
0
0
1
0
0
0
0
