Atriatix v1.000
63
6.62966882004115
0.00291951497396414
0.354872741699225
0.00618652343750889
0.270151443481454
156
136
-107
50
0.02
2
1
-0.514481515
-0.478886933997273
0.135440132
-0.0813685795292258
-0.458706568
-0.567239750176668
-0.495977345
0.045698924921453
-0.24048521
0.248833084478974
-0.738048551
0.486837876029313
0.541043819
0.627446480095387
-0.531155966
0.885350714437664
0.328466944
-0.588096359744668
0.993071897
0.342372217215598
-0.076155233
0.594441179186106
-0.794513922
0.260497427545488
0.581851724
-0.843072636052966
0.057908381
-0.888762290589511
-0.277943647
-0.992736518383026
0.640138209
-0.404945072717965
0.604092195
0.730238331481814
0.809225029
-0.837276249192655
0.809469317551702
-0.628414157778025
0.984756451565772
-0.633227915503085
0.873776461463422
0.973995814099908
-0.296088052447885
0.0117496224120259
0.913023815955967
-0.916172213852406
-0.969967819284648
0.572074527852237
-0.41212358372286
0.947278028354049
0.408453969750553
-0.153791761957109
0.249528167303652
-0.385250341147184
0.0633608740754426
-0.68409160617739
-0.389033508021384
0.672175886109471
-0.470600595232099
0.1793098943308
0.787377604749054
0.818046376109123
-0.588189139496535
0.526584076695144
-0.950557589996606
0.00488674454391003
0.968828788492829
-0.373073979280889
-0.86672697449103
-0.636058825999498
0.610092070419341
0.795619978569448
-0.549260069150478
-0.368191843852401
0.904823633376509
0.809932929463685
-0.956060259137303
-0.702220641076565
0.193524785805494
0.342586259357631
-0.372446395922452
0.190631618723273
-0.603064821567386
0.38155556563288
-0.437153773847967
0.723622057586908
-0.883991609793156
0.104948586784303
-0.892944481689483
-0.483563674613833
0.616653139237314
0.179711257107556
0.781922870781273
0.612839967012405
0.792990118730813
-0.0470881136134267
-0.794885948766023
0.0127829145640135
-0.297125542070717
-0.495646535418928
-0.771719271782786
-0.262292895466089
-0.230566191952676
0.029264091514051
-0.274487380404025
0.147807219997048
0.242372053209692
0.519815531559289
0.875930265989155
-0.270005442202091
-0.987211353611201
-0.785780106671154
-0.715831570792943
0.0753140207380056
0.375263570342213
0.782154434360564
-0.21749988431111
0.264564234763384
-0.169042076449841
0.715264490805566
-0.741648775
1.000114
0
0
0
-0.619129209
-0.474519869
1
1
1
1
1
1
1
0
1
