Atriatix v1.000
62
0.01
0
233.333333333333
0
175
114
115
-122
50
0.2
2
1
0.348388484
-0.800287707708776
-0.440356652
0.245487611740828
0.45379838
-0.368477866984904
-0.09539627
0.210392290726304
0.03156999
-0.949706870131195
0.466382833
-0.549294732511044
-0.150793425
-0.486243565566838
0.134710632
0.920447519049048
0.703668489
0.640991159714758
0.676369411
-0.689535941928625
0.833848764
-0.950197690166533
-0.202916589
-0.267127824947238
0.217814321
0.217926834709942
0.322549099
-0.998787194490433
-0.151437193
-0.76318219024688
-0.15764393
-0.774944977834821
0.582045055
-0.573243259452283
-0.339451427
-0.0621963478624821
0.65120316715911
0.28204399254173
0.396577652078122
-0.523539980873466
-0.560225767549127
0.715017345733941
0.0803939267061651
0.832085810601711
-0.390390343498439
0.0676486743614078
-0.914569013286382
-0.310279930010438
0.175260125193745
-0.140531248413026
0.74322941666469
0.876499313861132
-0.380423809867352
-0.259429820813239
0.983451444189996
-0.0632692258805037
0.644074479583651
-0.381561557762325
0.843036213424057
-0.947331234812737
0.647819534409791
0.427361088804901
0.188245683442801
-0.970255823805928
0.528571269009262
0.509165034629405
-0.506648848298937
-0.435002911835909
0.899948057252914
-0.925968007184565
-0.980289597529918
0.517462516203523
-0.681644556578249
0.710142028518021
-0.761014519724995
-0.600740723311901
0.613430478144437
-0.589104761369526
0.844251088332385
0.806131979450583
0.91575167933479
-0.911538443528116
-0.80725638801232
0.00619614496827126
0.475564618129283
0.0424086814746261
0.524000767152756
-0.594363553449512
0.866273129824549
-0.647841866128147
-0.202858126256615
-0.889891922473907
0.666446149814874
-0.337980565614998
0.491038754116744
-0.699408756569028
0.214090174529701
-0.672447591088712
-0.788872743491083
0.642448779195547
0.526937347371131
-0.60799238178879
0.446609403472394
-0.553563108667731
-0.0175008303485811
-0.638405087403953
-0.678203834686428
0.800419025123119
0.851635836530477
0.24833011161536
0.685340858530253
-0.609467143192887
0.279391197953373
-0.15079019125551
-0.618886830750853
0.230560410767794
0.806843344587833
-0.269535698927939
-0.955536198336631
0.0182513017207384
0.027720819
1.0001
0
0
1
-0.114361356
-0.732370249
1
0
1
1
0
1
0
0
1
