Atriatix v1.000
63
0.242861464610636
-0.0301388888888816
9.57753327546298
2.18713541666667
9.39288953993056
114
79
156
50
0.2
2
1
-0.119175016
0.273464384488761
0.746017411
-0.935745941475034
-0.023748094
-0.642400651238859
-0.042446638
-0.144463662058115
0.497160297
-0.732951850630343
0.441440966
-0.98126076720655
0.334733533
0.0763800116255879
0.163788067
-0.149289436638355
0.804753684
0.0222201300784945
0.096294857
-0.347177619114518
0.128436475
0.282424473203719
-0.012872102
-0.0396589152514935
-0.545718129
-0.539667286910117
0.657184768
-0.601249335333705
0.01469029
-0.257150719873607
0.665499338
0.385779067873955
-0.488905563
-0.798897457309067
-0.31246233
-0.602122308686376
0.3213567645289
-0.79756788816303
-0.549865464214236
-0.980096001178026
0.623182561714202
0.402454270981252
-0.433179427403957
0.496757263317704
0.0272986614145339
-0.714044469408691
0.11729005118832
0.005717433989048
-0.185852221678942
-0.274635692127049
-0.685240723658353
0.368237128481269
0.367848469410092
0.52555073145777
-0.895034390036017
0.419936750084162
0.901170719880611
0.423704571090639
0.0405571195296943
0.757552729919553
-0.934722845908254
0.513041292317212
-0.725377148482949
-0.918411105871201
0.537979871500283
0.559086236171424
0.0171137298457325
0.85342095606029
-0.815737092401832
0.177286923862994
-0.702095920685679
-0.514395866543055
0.882820319849998
0.340703486464918
-0.619756225962192
0.784133890643716
0.61235989863053
-0.813472780399024
0.66835101088509
0.861409805715084
0.891422503162175
0.590177263133228
0.452895707916468
-0.761347437277436
0.165467022452503
0.475725405849516
0.338123527821153
-0.6434759311378
0.234970961231738
0.331399015150964
-0.30562947364524
-0.787299303337932
0.318296650890261
-0.101087908260524
0.979718425776809
-0.654850348830223
-0.156926914583892
-0.494625550694764
-0.72545948671177
-0.120141537860036
0.559843382332474
-0.993470980785787
0.872688164468855
0.8617676012218
-0.928272131364793
0.810067280195653
0.273067991714925
0.587656224146485
-0.626147208269686
0.947772813029587
-0.584640382323414
-0.840268962085247
-0.503705344628543
0.665242980234325
-0.496375926304609
0.978668292984366
0.844290180597454
-0.502061269246042
0.2615528232418
0.394858900457621
-0.670538108
1.000114
0
0
1
-0.69768747
-0.03689259
1
0
1
1
0
1
0
0
1
