Atriatix v1.000
63
0.528494513160733
0.0987452809981439
4.51380215524745
-0.154390648674672
3.15690200701231
114
92
104
50
0.2
2
1
0.732896168
0.920558131299913
0.559706512
0.24645765312016
0.569341565
0.299812321551144
-0.615527129
0.729563355445862
0.365224004
0.100916030816734
0.098058357
0.835872365161777
-0.421088689
-0.468764274381101
-0.185067976
-0.974086467176676
0.453965705
-0.986827642656863
0.170047845
0.589202830567956
0.511697518
-0.978070083074272
-0.617312504
-0.661542780697346
-0.102765478
-0.809137885458767
-0.341806256
-0.00673835910856724
0.172856896
0.653147184289992
0.771344481
-0.528060864657164
-0.347652193
-0.911459186114371
-0.824882638
-0.189625917002559
0.870109627489001
0.443957199342549
0.47859508683905
-0.0734614282846451
0.278795764315873
-0.203371775336564
-0.362238705623895
-0.0505281109362841
0.769208124373108
0.328590766526759
-0.297062913421541
0.331463139504194
0.106210198719054
-0.118747876025736
0.466608177404851
0.462186986580491
0.874405773822218
-0.941216426901519
0.855392666067928
0.00354252010583878
0.0273332674987614
-0.65090795326978
-0.590100564528257
0.663945248350501
0.633925689850003
0.231119939126074
-0.303772824350744
0.630822215229273
0.915986229199916
0.737223035655916
-0.00714596780017018
0.38006024248898
0.170429463032633
-0.560623432509601
-0.903332120273262
-0.918842703104019
-0.32996180607006
-0.672040608711541
0.591887220274657
-0.683173017576337
-0.863514089491218
0.551866293884814
0.425622706767172
0.335806157439947
-0.120625126641244
0.48869842197746
-0.866170708555728
0.557615676894784
0.19503982597962
-0.886218163184822
0.561398999299854
0.548024259507656
-0.881132669281214
0.136764193885028
-0.579855673480779
0.183965479955077
-0.875119270291179
0.874539547599852
0.528422263916582
0.226657886058092
0.86634073080495
0.329251280985773
-0.923851054627448
-0.978321759030223
-0.448888381477445
-0.559876839630306
-0.241045078728348
-0.45526210963726
-0.954456910025328
-0.0221314849331975
-0.874768943060189
0.511912254616618
0.300617715809494
-0.949572457931936
-0.0201849439181387
-0.226926553994417
-0.805885973852128
0.688782735727727
-0.811931390780956
0.707276010885835
-0.617464778479189
0.481602442450821
0.724095167126507
0.838845796883106
0.256553509
1.000114
0
0
1
-0.27253746
0.306848339
1
1
1
1
0
1
0
0
1
