Atriatix v1.000
63
0.309829908340479
-0.17425397135416
7.3567598866404
-0.370907297092015
5.2773530964039
114
79
40
50
0.2
2
1
0.59233819
-0.87876267451793
0.107791662
0.847048042342067
0.556710473
0.576710418798029
-0.440925101
-0.997650045901537
-0.025866959
-0.399189815856516
0.026617717
0.38583087362349
-0.326893834
-0.232809680514038
0.034450324
0.396450437605381
0.042471
-0.509728570468724
-0.494250037
-0.594534048810601
0.215369536
0.320040830411017
-0.888160067
0.876427505165339
-0.455779802
0.691930479370058
0.896579239
-0.137873781844974
0.960459048
-0.899476970545948
0.019892865
-0.90275439620018
0.312796623
-0.834163990803063
-0.035807327
0.405466062948108
0.277740395162255
-0.439065872691572
0.0474389246664941
-0.36022749915719
-0.063867140095681
0.269619702361524
0.58659243164584
-0.125284930691123
-0.390544754918665
-0.857048782519996
-0.444792671594769
0.0693730339407921
-0.950353152584285
-0.776659999974072
-0.921085529495031
0.919771766290069
-0.423810006584972
-0.195024973712862
0.612545458134264
0.119502861052752
-0.745789374690503
0.699325851164758
0.14264728454873
-0.252702621743083
0.707344511989504
-0.325526337139308
-0.740862390492111
-0.999697789549828
-0.340880915056914
-0.462979537434876
0.439850657712668
-0.00819042511284351
0.796600899193436
-0.174673630855978
-0.608276257757097
0.832189630717039
0.0500587192364037
0.582825048826635
-0.207625587005168
0.711776221171021
0.882392229977995
0.180167269892991
0.275818230118603
0.204455740749836
0.682076372671872
-0.3450574176386
0.00607716245576739
0.510709127411246
-0.146628694143146
0.537729122675955
-0.317571389023215
-0.141143020242453
0.697547991294414
-0.366778456605971
-0.679954942781478
-0.216742200776935
-0.321120595093817
0.725187067873776
0.649774336721748
0.498209357261658
-0.83085262728855
-0.326000330038369
0.480810537468642
-0.913696812465787
-0.735584968235344
-0.124497621320188
-0.129994476679713
0.719982203096151
0.767814916092902
-0.450052292086184
0.441571082454175
-0.364948561415076
0.932102667633444
0.829766211099923
-0.2990782991983
-0.925108082592487
0.0557263721711934
-0.885086839087307
-0.313592039514333
-0.0758723560720682
-0.473838479723781
-0.335456646047533
-0.197309436742216
0.250495720654726
0.404261593
1.000114
0
0
1
0.89376404
-0.820495021
1
1
1
1
0
1
0
0
1
