Atriatix v1.000
64
0.422864854512328
-0.0265950376157504
5.49132235001928
-0.039115842013878
4.09932219871239
135
161
-4
50
0.2
2
1
0.948200122
0.3275794563815
-0.44408533
0.57597484998405
0.674153349
-0.315781011246145
-0.520661304
-0.576476324349642
0.710525331
-0.908359960652888
-0.193640966
-0.681252336129546
0.539991143
-0.7306296704337
0.165376009
0.0574570372700691
0.910644867
0.303095112554729
0.210890106
-0.457474688068032
0.988709553
-0.216793022118509
0.191250992
-0.0023655854165554
0.302262802
0.89843378122896
-0.708202836
-0.942027075216174
-0.930272018
0.453294699080288
-0.402863777
0.956637442111969
-0.993118941
-0.721865591593087
0.016315773
-0.474512921646237
-0.793876939918846
0.000485391356050968
-0.985365057829767
-0.770798925310373
0.181768160779029
-0.3534916350618
-0.504153464455158
0.951289543882012
-0.324902606662363
-0.958739164285362
-0.321500195655972
-0.249192662537098
0.31292798416689
-0.523456220515072
0.310173846315593
0.308521037921309
-0.286551685538143
-0.38492355402559
-0.936648371163756
0.281279075890779
0.133068506140262
0.0997492885217071
-0.543315362650901
0.283334972336888
-0.751963367220014
-0.163294981233776
0.145398148801178
-0.286626294255257
0.164570555556566
0.420997786335647
0.924587130080909
0.145991204306483
-0.748744615819305
-0.326419516466558
0.289152761455625
0.506376963108778
0.887456562835723
-0.241629824973643
-0.105870414990932
0.746949786320329
0.721498581115156
-0.151858347468078
-0.240846721921116
-0.755303345620632
-0.467640690039843
-0.192000885494053
0.560819051694125
-0.362035283818841
0.288629962597042
-0.134824029169977
-0.14331932598725
-0.678543593734503
-0.501509319525212
-0.266087227500975
-0.415359881240875
0.318177687004209
0.444451744202524
-0.835836733691394
0.681477838661522
-0.252910584211349
0.396610409487039
0.382878574542701
-0.835726336110383
-0.394788162782788
0.398173368070275
-0.603380500338972
0.518468325491995
0.0829322002828121
0.716994833666831
-0.375753046013415
-0.263684396166354
-0.868734499439597
-0.443119747098535
-0.171559485606849
0.849475102033466
-0.500181652605534
-0.877594358753413
0.814795101992786
0.299495644401759
0.964205956086516
-0.368997456040233
-0.132754213176668
0.989939299877733
-0.0383277349174023
0.366058622
0.9997
0
0
1
0.388570718
0.36389603
1
1
1
1
1
1
1
0
1
