Atriatix v1.000
63
22.8569055563501
0.00180718850290729
0.10389158166719
0.00479974574747999
0.0813630406206924
156
98
11
50
0.2
2
1
0.0561919
-0.955832585692406
0.171413854
-0.436661940999329
-0.10434261
-0.108063014224172
-0.597293296
0.383199141360819
-0.182193647
-0.853803563863039
0.538061496
-0.387317315675318
-0.10911866
-0.0495953913778067
0.806002917
0.450564456172287
0.889522912
-0.418427102267742
-0.889369092
-0.487440993078053
-0.131621965
0.693307241424918
-0.878169374
0.657369473017752
-0.832650887
-0.282946761697531
0.156498034
-0.232184492982924
0.192233625
-0.859705610200763
-0.555468892
0.455789332278073
-0.185495591
0.88045346736908
-0.126663327
-0.840210077352822
-0.266019449103624
0.473247004672885
-0.195397132541984
0.603785307146609
-0.351861084345728
0.294242914766073
0.0570872244425118
-0.913847000338137
-0.428183708805591
0.532371232286096
-0.350829613860697
-0.43255144637078
-0.848947836551815
-0.865862019360065
0.394925438333303
-0.974247758276761
0.314822114538401
0.437292164191604
0.947452871594578
-0.951656139455736
0.108411846216768
0.712695885449648
-0.616768832784146
-0.871544339694083
-0.9478181716986
-0.666852412745357
-0.0787669918499887
0.635853399522603
0.869472572114319
0.787908419966698
-0.129442885052413
-0.0700044753029943
-0.0725994710810483
-0.738318266347051
-0.599674293305725
-0.415479524992406
-0.765705386642367
-0.00320430472493172
-0.774402413051575
-0.808187888003886
0.337523351889104
0.157339030876756
-0.196953145321459
-0.283606725744903
0.965462656226009
0.413999892771244
0.130157240200788
-0.134102542884648
0.757354221772403
0.968357851728797
0.741682066116482
-0.551631382666528
-0.0751954489387572
0.235379014164209
-0.00288016675040126
-0.815360897220671
0.188674602191895
0.902864264324307
-0.747044568415731
0.944535707123578
-0.164889937732369
0.586600631475449
-0.986583023797721
0.875663849525154
-0.765537754166871
0.799965782091022
0.653498268220574
0.393519879318774
-0.333150381688029
0.456735637038946
0.807996880728751
0.501681505702436
0.79810994444415
0.625845113769174
0.0203178697265685
-0.58917364757508
0.64989306172356
-0.243148006498814
-0.255206889938563
-0.0746713625267148
0.407644278835505
-0.905146086588502
0.296266256365925
-0.433816022239625
0.910228399
1.000114
0
0
1
0.503608484
0.840693329
1
1
1
1
0
1
0
0
1
