Atriatix v0.005
65
0.063842239840145
-0.262505696614582
36.2859195963542
1.65764078776042
29.068959757487
66
96
24
10
0.1
2
1
-0.647251462
-0.0197250796481967
0.353924537
-0.837484955787659
0.208449245
0.459376218728721
-0.647970781
-0.835923718288541
-0.73832106
0.903814108110964
-0.778474892
-0.47261518612504
0.053851407
-0.774752647615969
0.043655242
0.773401925340295
-0.736496461
0.6850127549842
0.968365358
0.368164889514446
0.30236467
0.249471838586032
-0.133962714
0.356453960761428
0.358691542
0.18168564978987
-0.83913702
-0.0963375084102154
-0.018381115
0.338167688809335
-0.810390842
-0.535379825159907
0.800275634
-0.860535035841167
0.929522583
-0.201880589127541
-0.528583243023604
-0.316682827658951
0.439125954639167
-0.454105200245976
0.449320724699646
-0.0308559974655509
-0.144345561508089
-0.405194241553545
0.671702590305358
0.702610566280782
0.292882810812444
0.940972262993455
-0.244607297237962
0.649020952172577
0.483093233313411
-0.725386284291744
-0.204468957614154
0.00428990554064512
-0.493066348601133
0.00434093736112118
-0.637972818221897
0.752242633141577
0.45491681760177
-0.0603487156331539
0.787035871762782
-0.523007267154753
0.364309940021485
0.350376890972257
0.337198252324015
0.599148248322308
0.275164955761284
0.62183603644371
-0.635601311456412
0.504595848731697
-0.250760570634156
0.224437637254596
-0.971212768461555
-0.465386866591871
0.695558076258749
-0.783511135727167
-0.312182295601815
-0.693940938450396
-0.15363508882001
-0.00104411505162716
0.545051413122565
-0.6696074930951
-0.272783978376538
-0.459072269499302
-0.347523517441005
-0.599731062538922
0.46496296627447
-0.205466711893678
0.860092817340046
0.71246522013098
-0.722623201552778
0.51806141808629
0.806512687820941
-0.804117449559271
0.988162714522332
-0.773965803906322
-0.455673058982939
-0.986622492782772
-0.588884672615677
-0.515016719698906
0.893986836541444
0.706171232275665
-0.052835435140878
-0.726320596411824
-0.880048492457718
0.949586735107005
0.238062193151563
-0.373435009270906
-0.977148953359574
-0.611135677434504
0.220458965282887
0.279139900580049
-0.958584783133119
0.523805153556168
-0.57587760547176
-0.465949706733227
-0.542082212399691
-0.889007081277668
-0.141954847145826
0.0666306223720312
0.300886496
1.0113
0
0
0
-1.25
1.25
