Atriatix v0.005
61
0.323376458934574
4.49026585853861
11.7057983095431
2.9127198873668
8.32436922562015
109
148
-2
41
0.1
2
1
-0.14288232
-0.791852336376905
-0.411146905
-0.357869514264166
-0.732868117
-0.265472499653697
0.030030767
-0.966916839592159
0.840576211
0.161950781941414
0.302139774
-0.26148692984134
0.441759496
-0.713917227461934
-0.745888093
-0.143893494270742
-0.675750087
0.700447928160429
0.981987413
0.0081545552238822
0.809952121
-0.433184361085296
-0.444156287
-0.648803341202438
0.212325038
-0.393710903823376
0.850239732
-0.896757711656392
0.347490243
0.0298472847789526
0.071925862
0.557320752181113
-0.523019003
0.627090100198984
0.078569551
-0.949890875257552
-0.974118110258132
-0.268063409253955
0.0822465070523322
-0.145611698739231
0.920109116937965
0.284026324748993
0.831447542179376
0.464077177457511
0.886581375729293
-0.295426117256284
0.865351027343422
0.240594954229891
0.560031389351934
-0.194573525339365
0.934110980946571
0.889301567338407
-0.25979194464162
-0.5499253179878
0.178910779301077
-0.265233757905662
0.643219219055027
-0.814633674919605
0.165532492566854
0.263614173047245
0.490765071939677
-0.437326544895768
-0.634808154311031
0.903701328672469
-0.71898782486096
-0.632737528532743
-0.823611195664853
-0.491632618941367
0.0848581078462303
0.474617363885045
-0.918476214166731
-0.485483239404857
-0.28866325924173
0.552466079592705
-0.967970504891127
0.243277835659683
0.0859141345135868
-0.672739984467626
-0.34423161437735
0.31199021730572
-0.814574936870486
0.633856635540724
-0.619554254692048
-0.373729811049998
0.873400162439793
0.967155212536454
0.0667884075082839
-0.0790957389399409
-0.52046629646793
-0.245564304292202
-0.754760913085192
0.318320850841701
-0.532958008814603
-0.932849297299981
-0.450083659496158
0.87339008692652
-0.968337612692267
0.990920636802912
0.443590153474361
-0.426698260940611
0.976042959373444
-0.627518070861697
-0.172576849814504
0.761271272785962
0.703272753860801
-0.837661594152451
-0.370772569905967
-0.547175970859826
-0.326697305310518
-0.92813421972096
-0.0360129713080823
0.513407529331744
-0.833992893341929
-0.236380729824305
0.960396003443748
0.166081904433668
-0.305364136118442
0.293594339862466
-0.15283785527572
-0.201961549930274
-0.086592837
1.0003
0
0
1
-1.25
1.25
