Atriatix v0.001
4
0.233444931385485
1.10619859054447
11.1014181032797
0.12441497164887
7.62082960620028
-108
-74
15
34
0.1
1
1
-0.488295965
0.315050697885454
-0.056270596
-0.369507535826415
0.449368316
0.0601147692650557
-0.098994711
0.317860468756407
0.09720592
-0.11543586384505
-0.399073965
-0.0373303010128438
0.331459247
-0.472234908491373
0.281094592
0.206792322453111
0.380776245
-0.0206070812419057
-0.127934889
0.363887768704444
-0.13210258
0.375366950407624
-0.085481761
0.192779194097966
-0.385961836
-0.292737810872495
-0.456180776
0.00774400914087892
0.127841388
-0.0454275086522102
-0.411166169
0.360093468334526
-0.049224526
0.499200313352048
0.081877078
-0.22458367748186
0.280852536438033
-0.0684519801288843
-0.27333022817038
0.280861533712596
-0.453458005795255
-0.392414244823158
0.121177868219092
-0.293164947535843
-0.147245540516451
-0.433729123324156
-0.217790361260995
-0.00251434231176972
0.470770936226472
-0.333306048996747
0.268645650940016
0.0143548590131104
-0.206007668050006
0.0543263126164675
-0.0498234385158867
-0.432434138376266
0.431384281953797
0.315744184888899
0.218423721613362
-0.341073406394571
0.360492286039516
-0.0687956362962723
0.187317595118657
0.171321795787662
0.311902157729492
-0.115553536452353
0.179608988808468
0.488769174087793
-0.192979214014485
-0.460903273895383
-0.453611904522404
-0.218485385645181
-0.47894779057242
0.141048391349614
-0.383513650624081
-0.0594585402868688
-0.106955996947363
-0.443806368857622
-0.177363905822858
0.395868850406259
0.154878977453336
0.102882045321167
0.30126306344755
0.303014126140624
0.201087190536782
-0.411519279703498
-0.487213326385245
-0.168005709070712
-0.0286467282567173
-0.0905891498550773
-0.320696870563552
-0.456758459564298
0.267594058765098
-0.175964079797268
0.0865263419691473
0.0848078518174589
0.177481546765193
-0.24222354684025
-0.453138340963051
-0.304766363929957
-0.473713849904016
-0.25017368234694
-0.429512591799721
0.246455452870578
0.0289152765180916
-0.099154400639236
0.0413192522246391
-0.188872212078422
0.0640222139190882
-0.0689949654042721
0.444732357049361
-0.0112661072053015
0.242060329532251
-0.292242993600666
-0.0560836277436465
0.474860687274486
0.189157581655309
-0.147291896864772
-0.148261775961146
-0.391987275797874
0.574949075
1
0
0
0
