Atriatix v0.005
62
0.0297414929842219
20.6515798611111
99.1053862847222
8.46197916666664
67.302333984375
161
-50
-17
10
0.1
2
1
0.234255731
0.546934304758906
-0.418528625
0.264662877656519
0.507076939
0.721058886498213
-0.351328644
0.315970017574728
0.002258192
-0.299260204657912
0.61868349
0.287740510888398
-0.711980848
0.355883933603764
0.485085257
-0.13192339707166
0.905945263
-0.600210377946496
0.34122373
-0.342008999548852
-0.967513221
-0.928358282893896
-0.33230884
-0.0162151986733079
-0.584151593
0.195959853008389
0.504566188
0.133253549225628
-0.567980415
-0.162250190973282
0.602170676
0.484471413306892
0.603695377
-0.727891998365521
0.144092178
0.4959034929052
0.4258379987441
0.487029101699591
-0.863777983468026
0.0265962472185493
0.841628964524716
-0.0618332233279943
-0.944441003259271
-0.0448039500042796
-0.787438137922436
0.774297557771206
0.852528743911535
0.566545869223773
0.126425750087947
-0.747762167826295
-0.0994313373230398
0.67461007181555
0.886929181870073
-0.440036039799452
0.98672852339223
0.950477353297174
0.0287148538045585
-0.233314482495189
0.937036673072726
-0.575808207504451
0.701514878775924
0.118621662259102
0.970381871331483
-0.37083796877414
-0.732803315389901
-0.600769372656941
-0.625339248683304
0.357898578979075
-0.046550462488085
-0.427357662469149
-0.401059094350785
0.497829242609441
0.907861690502614
-0.570955848321319
-0.644610402639955
0.915942681021988
-0.503861843142658
0.450769729912281
0.824718095827848
-0.138989915139973
-0.811790891457349
0.617841025814414
0.558891637716442
0.852134981192648
0.875978899654001
0.371713403612375
0.174855012912303
0.522381163202226
-0.0335342851467431
-0.544026119634509
-0.566976224537939
0.386228744871914
-0.90591815719381
-0.147257506847382
-0.205708920489997
0.999608340673149
0.795804574619979
0.533526791259646
-0.950699859764427
-0.518736629746854
0.992987727280706
0.243279453366995
0.11373231979087
-0.135809511877596
0.623563792090863
-0.963590970262885
-0.41663916176185
0.245908138342202
-0.731613291893154
-0.216506190598011
0.142620109487325
-0.793696765787899
-0.884534739423543
-0.632551187649369
-0.579559297766536
0.461805962957442
0.105837104376405
-0.212104093283415
0.38709992589429
-0.775357284583151
-0.395166588
1.0004
0
0
0
-1.25
1.25
