Atriatix v0.005
60
0.454040705476749
2.70794270833334
7.84698267807196
0.114736147280083
3.96901612458405
118
0
0
41
0.1
2
1
0.473185963
0.925919270142913
0.405877708
0.0731645757332444
-0.822751912
0.1867904253304
-0.565479483
0.945235661230981
0.718998093
0.488060208037496
-0.668797394
-0.481016139499843
0.732787231
0.749043479561806
-0.069708749
0.655210393480957
-0.53255418
-0.561987074092031
-0.80624465
-0.233212902210653
-0.497530232
0.528131674975157
-0.134171489
0.466971858404577
-0.135402281
-0.544660961255431
0.137437763
0.266552162356675
0.388528825
0.296939380466938
0.414147892
0.788566778413951
0.665531151
-0.110355893149972
0.781371398
-0.530644438229501
0.423690689262003
-0.894183214753866
0.260594089049846
0.21468738373369
0.683551016729325
0.00667138583958149
-0.549633716698736
0.979716186411679
-0.467106437776238
0.0911736488342285
0.645809650886804
0.741515162400901
0.864408507477492
-0.640604423359036
0.0303896726109087
0.832939059473574
0.920006310101598
0.409073051065207
-0.966296273749322
0.106564610265195
-0.0144801479764283
0.284116575494409
0.449034797493368
-0.102540913037956
-0.920452787075192
-0.706174857914448
-0.595579184126109
-0.746473019011319
-0.0198149313218892
0.521553223952651
-0.219010384287685
-0.597815192304552
-0.566597285214812
0.24158089235425
-0.827690477948636
0.922114036045969
0.886806714814156
-0.0370629411190748
-0.02149443840608
-0.411157856695354
-0.407453826162964
-0.681074157357216
0.728891298640519
-0.637098205275834
-0.576891363132745
-0.478893937543035
0.226866296026856
-0.510681851767004
0.243756612297148
-0.403526145964861
-0.389170798938721
-0.822825715877116
-0.814645279664546
0.126598412171006
-0.0751435435377061
-0.171995240263641
-0.33866253355518
-0.292539142072201
-0.707103363703936
-0.718232710845768
0.4725676397793
-0.151253769174218
0.290230406913906
-0.950857452116907
-0.156164663378149
0.531338606029749
0.605946112889796
-0.00108789745718241
-0.264252391178161
-0.858230663463473
0.590180987957865
0.469164465554059
0.275758737232536
0.00236842036247253
-0.220122009050101
-0.728920725174248
0.652091130148619
0.215868992730975
0.996808266732842
0.554039598442614
-0.685703153256327
0.0432149432599545
-0.888390767853707
0.00082236435264349
0.824209746
1
0
0
0
-1.25
1.25
