Atriatix v0.005
60
0.773562307510463
2.08562477148212
5.10197304838129
-0.0196192108357622
2.24264199683862
-61
0
0
47
0.1
2
1
-0.230897593
-0.795603629201651
0.048596997
-0.182273172773421
0.951372746
-0.703597409650683
-0.910364901
0.316624228842556
-0.142246401
-0.395427048206329
0.095801771
-0.406046208925545
0.076491788
0.8567626606673
0.139478511
-0.322849660180509
0.572398161
-0.484790448099375
-0.777227539
0.531339435838163
0.444049742
0.937544832006097
0.957570123
-0.16539407055825
-0.3248675
0.508506946265697
-0.900893308
0.0208406401798129
0.223674751
0.461108570918441
0.526801019
-0.441084838472307
0.292921183
0.606006730347872
-0.233893808
-0.0630652094259858
-0.872402500826865
-0.312173960730433
0.645125756505877
0.32031958270818
0.179315695073456
0.587185069918632
-0.820254459511489
0.352463531307876
0.984869956504554
-0.912824155762792
0.28103112289682
0.0667218724265695
0.601173182483763
0.423046451061964
-0.621359083335847
0.378476514481008
-0.0594158661551774
0.333836788311601
0.554004880134016
0.126029592938721
0.85037520667538
-0.165282569825649
-0.722981147002429
0.129075150005519
0.280090830754489
-0.571218380704522
0.340004517231137
-0.766501060687006
0.380546492990106
0.977040383964777
0.0826849830336869
-0.188743644393981
-0.121781614143401
-0.0546292196959257
0.501925999764353
0.684078489430249
0.568773680832237
-0.752832740545273
-0.660007208120078
-0.0602436931803822
-0.726508573163301
0.400446159765124
0.745072519872338
0.609752953983843
0.102324073668569
0.218153323978186
-0.402187633793801
0.676894186995923
0.367349620442838
-0.249575158581138
-0.902376753743738
-0.618113073520362
-0.00963561097159982
0.697550915181637
-0.297500855755061
0.297415937297046
0.74836642248556
-0.987607145681977
0.0161020741797984
0.138568633235991
0.200679508503526
-0.088996808975935
0.715862665791064
0.778338006697595
-0.358532172162086
-0.98980107717216
-0.884153624530882
0.436953683383763
-0.078608772251755
0.810837879776955
0.458135322201997
0.51379110198468
-0.517848879564553
0.245548216626048
0.526475748512894
-0.969391181133688
-0.552322993520647
-0.49033896997571
0.675941106397659
0.154863937757909
-0.884296376723796
0.894096100702882
0.872360768262297
-0.228144335560501
-0.306511282
1.001
0
0
0
-1.25
1.25
