Atriatix v0.005
61
0.138883452102838
11.1055248119213
27.906182471306
4.63478729745372
17.2352805419922
109
35
31
54
0.1
2
1
-0.208085875
-0.91780449822545
0.57660785
-0.245580420829356
-0.874158551
0.662833327427506
0.58753738
0.111441117711365
-0.758822052
0.982456721365452
-0.640656761
0.133836726658046
-0.355403044
-0.170196542516351
0.612569763
-0.191394559107721
0.692480368
0.593716595321894
0.82610022
0.703503436408937
-0.409691718
-0.364907277747989
0.971898014
-0.984249914996326
-0.488810724
-0.745466679334641
0.228263528
0.513312133960426
0.177281305
-0.025550739839673
0.265356577
0.337516010738909
0.747853225
0.354368414729834
-0.8032655
-0.864261747337878
0.357736940961331
-0.941803595051169
0.790655868593603
-0.507075938396156
0.149920181836933
0.3921804651618
-0.965100176166743
-0.869316016323864
-0.853970103431493
-0.967673564329743
0.648851035628468
-0.157281286083162
0.798456279095262
0.160018879920244
0.63660028995946
-0.364677974022925
-0.432132583577186
-0.275405673310161
0.474810699466616
0.0417118268087506
-0.630135437939316
0.0516176372766495
-0.970900460612029
-0.92106066364795
0.2345280344598
0.515611497685313
0.79268570849672
0.816126392222941
0.0226037404499948
-0.504010964184999
0.541052815038711
-0.977219120599329
0.54208032367751
0.334939563646913
-0.00362211233004928
0.865940284915268
-0.0910930619575083
0.516017444431782
0.595475711394101
-0.875106622464955
-0.504398353863508
-0.217815915122628
0.955008788499981
-0.107769987545907
0.311500442679971
-0.587946947664022
0.127712924499065
-0.770030939020216
0.158396902959794
-0.626911683008075
0.243388439062983
0.749514465220273
-0.594677543733269
0.570505619049072
0.628407001961023
0.584189417771995
-0.273782715667039
-0.0893730390816927
-0.0025159060023725
0.723098666407168
0.644241844769567
0.39743822440505
-0.188532907050103
0.175068943761289
-0.77352098049596
0.981099912896752
0.394888984505087
-0.068582477979362
0.772776888217777
-0.622838981449604
-0.0929623018018901
0.196298892609775
0.84248212678358
-0.424773985520005
0.760291068349034
0.853379570879042
-0.537185969296843
0.255824971944094
0.579467420000583
0.637591025792062
0.862629163544625
0.834236802533269
-0.704058220144361
0.98071073461324
0.57532663
1.0003
0
0
1
-1.25
1.25
