Atriatix v0.005
65
0.0262725779967159
0
88.8125
0.583333333333343
67.1927083333334
100
96
0
10
0.1
2
1
-0.06299528
-0.0331565774977207
-0.688552815
0.564739911817014
0.748686399
0.0863995049148798
-0.482299579
0.152042088098824
0.033736633
0.0961443111300468
-0.302122987
0.755109722726047
0.784607566
0.651209658011794
-0.908008487
-0.104207075200975
0.719436464
0.386715460568666
0.597811465
0.173769257031381
0.890810359
0.33659297414124
-0.260026386
0.48712479043752
-0.336328676
-0.801888838410377
-0.132384255
0.395513284020126
0.406112372
-0.839143814519048
0.174274138
0.594643489457667
-0.263186018
0.518914025276899
-0.366203341
0.970844580791891
-0.327128757257015
-0.214993780478835
0.446021469775587
0.204459709115326
-0.478238372597843
0.525328733026981
-0.914028636645526
-0.609182317741215
-0.138796605635434
0.633843949064612
-0.449686275329441
0.647532769478857
-0.549345391336828
0.264775786548853
-0.105163882952183
0.176882631145418
0.41820279089734
-0.857942057773471
-0.343312507029623
-0.24798562657088
-0.433404809329659
0.464485257863998
0.255135030020028
-0.904271272011101
0.142159685026854
-0.874681787565351
0.964586591813713
0.120592356659472
0.910366301890463
0.465090539306402
-0.446371186058968
0.499128281138837
-0.118220631498843
0.276369968429208
-0.816169185098261
0.532834437675774
0.532150284852833
-0.720777906477451
-0.337936467956752
-0.211219643242657
0.860400922130793
-0.213872635737062
-0.359915317501873
0.472531967796385
0.128247646149248
0.775101203471422
0.8551393491216
-0.993845471180975
0.625215965788811
0.0897672493010759
0.00532619142904878
-0.219956318847835
0.302795806434006
0.985133722424507
0.35347928153351
-0.452665370889008
0.621487408410758
0.737822918221354
-0.346684434916824
-0.570360555313528
0.454487850423902
-0.460496176034212
-0.508402052801102
0.00286249723285437
-0.608231802005321
0.392277861014009
-0.35993599658832
-0.568155991844833
0.288291276898235
-0.775232248008251
-0.489129684399813
-0.877418269403279
-0.599879928398877
0.947659512981772
-0.690697567071766
-0.139219245873392
0.952166748698801
-0.332552429288626
-0.0224995422177017
-0.0945185655727982
-0.518667694646865
-0.222866995260119
-0.477049743290991
-0.993484552018344
-0.201213157
1.001
0
0
0
-1.25
1.25
