Atriatix v0.005
61
0.204688044026442
0.0619793565538185
11.4614401527687
0.261640247938377
8.81123584509956
132
96
29
34
0.1
2
1
0.302145951
0.185542549006641
-0.111537628
-0.539812946692109
-0.758354665
-0.550853735767305
-0.082125696
0.568510372191668
-0.388935413
-0.457322307862341
0.154816646
-0.714805034920573
0.282086352
-0.525547604076564
0.390378931
-0.186752900481224
0.007534937
-0.802443248219788
0.83481726
0.928068367764354
0.78502377
0.803085253573954
-0.041259179
0.55838830396533
-0.363381508
-0.20654405746609
0.734689038
0.369150126352906
0.398265662
0.40455396194011
-0.877150653
-0.434900395572186
-0.387262903
-0.554546763189137
-0.855334409
-0.366172948852181
-0.880160169210285
-0.375533721409738
-0.611912953201681
0.247012440115213
0.437641699332744
-0.16972788516432
0.288208070676774
-0.961376352235675
0.528462553862482
0.33687234390527
0.0270483731292188
0.478817820549011
-0.956618904601783
-0.598874685354531
-0.603776082862169
-0.43770413286984
-0.360992664005607
0.221608431078494
0.466258441563696
0.529860075563192
0.460270684678108
-0.272441417910159
0.406285609584302
-0.658075144514441
-0.617026341613382
-0.833359303884208
0.297891782131046
-0.877269394695759
0.109861217904836
0.960294420830905
-0.713150583673269
0.294010704383254
-0.28604427119717
0.795408927835524
0.916491088923067
-0.383138369768858
0.722907547373325
0.421075842343271
0.986474144738168
0.860566200688481
-0.661888768430799
-0.88082970213145
0.780685970094055
0.317119941115379
-0.117662623059005
0.317510115914047
0.00803989125415683
0.880210576578975
0.0696300775744021
0.314343110658228
0.299911697860807
0.907400649040937
0.19122001202777
0.582912518642843
0.607966791372746
0.584263259544969
-0.188796845730394
-0.375149446539581
0.34612795850262
-0.990779064595699
0.065735109616071
0.841150085441768
0.620433769654483
-0.282162377610803
0.159491075668484
-0.610535553656518
0.390537602361292
0.865313801914454
-0.846858571749181
-0.503514640964568
0.906597289722413
0.785934733226895
0.635592932347208
0.194148992188275
0.265305393841118
0.14822182059288
0.374745578039438
-0.0515798600390553
0.428810104262084
0.424537105485797
-0.459484958555549
-0.850595473311842
-0.449723238591105
0.893890883773565
0.593870771
1.0044
0
0
1
-1.25
1.25
