Atriatix v0.005
49
0.143431428851568
1.42825520833332
17.69619140625
-0.0929687500000007
12.1079833984375
65
-26
33
50
0.1
2
1
-0.120031593
0.480975401587784
0.781995119
-0.0664786621928215
0.25581012
0.853140125982463
0.082208924
0.504588147625327
-0.173632519
0.108215370215476
0.499886704
0.958781722933054
0.197843094
-0.174446010030806
-0.826508042
0.696915643289685
0.416785324
0.950300161726773
0.890757286
-0.532288491725922
-0.222904861
0.203423562459648
0.013855293
0.368653429672122
-0.300701433
-0.146918325684965
-0.788789893
0.880045648664236
-0.224165219
0.316060214303434
0.339699532
0.651023278012872
-0.423890186
-0.441958311013877
-0.679002179
-0.743733830749989
0.305065893102437
-0.238547925837338
-0.644190930295736
-0.357834095135331
0.909016399178654
0.229635619558394
-0.680258753243834
-0.518804084509611
-0.277503545861691
-0.00389222148805857
0.684570837300271
-0.846765277907252
-0.750120868440717
0.107636262662709
0.8086481182836
-0.427407696843147
0.175507292617112
0.0499002216383815
0.94019305659458
-0.420510413125157
-0.803908952977508
-0.715522452257574
-0.222768167499453
-0.885258931666613
-0.23087916104123
-0.634089694358408
-0.0720760119147599
0.896390551701188
-0.628953841980547
0.607598287053406
-0.884969799313694
-0.182949982583523
-0.641030124854296
-0.234729309566319
0.468270681332797
-0.219308385625482
0.0296082035638392
-0.293214074335992
0.748324198182672
0.197642777115107
-0.0307337152771652
0.537009543739259
-0.153782275039703
0.856534468010068
-0.711420600768179
0.14652029145509
-0.598143285606056
0.39195254445076
0.835769802797586
0.652894291095436
0.885445996653289
0.0665422510355711
-0.0178308128379285
-0.296682654879987
-0.0144486972130835
-0.913684163242579
0.0737567660398781
0.10727536585182
0.647551413159817
0.167913297191262
-0.857537013944238
-0.231927069835365
0.606230930890888
0.576566241681576
-0.0290111373178661
0.38192995917052
0.756263680290431
0.353514885529876
0.104890941176564
-0.126593477092683
-0.795663269702345
-0.0483718328177929
0.905681882519275
0.0359057700261474
-0.653334957081825
-0.002023009583354
-0.761303325649351
-0.653995017521083
-0.184353253338486
0.4021105915308
-0.110525533091277
-0.57963524479419
0.639409034978598
0.528786031529307
-0.697593966
0.9999
0
0
1
-1.25
1.25
