Atriatix v0.005
60
0.0201450804525339
1.07861644108516
116.905075354028
-12.153034223386
74.7168099613209
34
154
17
21
0.1
2
1
-0.12234611
-0.466397737152874
-0.206138961
-0.124819124117494
-0.930883111
-0.0884837573394179
-0.332714769
0.565870184451342
0.161889527
0.67943178769201
-0.435765904
0.0230170805007219
-0.262628754
0.144248445518315
-0.481282911
0.414227440953255
0.121384398
0.874042826704681
0.565941482
-0.610341282561421
-0.56467829
0.328805909492075
-0.229001115
0.600452553480864
-0.936690632
0.571258469484746
0.657942395
-0.780879473313689
0.12913573
-0.973505365662277
0.883004369
-0.319366984069347
-0.923304341
0.759203563444316
-0.504295178
-0.637038806453347
0.947700484190136
-0.762780747376382
0.631600452121347
0.425822142511606
-0.549596409779042
-0.949851536192
0.980424288194627
0.526377098634839
-0.586908375378698
0.551826779730618
0.873365962412208
-0.369367182254791
-0.283908664714545
0.895352783612907
-0.66675739036873
0.639296067878604
-0.703957968857139
0.429450363852084
-0.0686896094121039
0.0468312464654446
-0.683816331904382
-0.0750908562913537
0.794466640334576
-0.647528877481818
-0.903589440044016
0.599853035993874
0.606592641677707
0.441930703818798
-0.10315928561613
-0.587413077242672
0.947787023615092
0.658574229106307
-0.851349206175655
0.590771459974349
-0.184760215226561
-0.217214714735746
0.225926701445132
0.86567600723356
-0.330503058154136
-0.361709950491786
-0.647720207925886
0.380259682424366
-0.150134196970612
-0.455816343426704
-0.264021291863173
-0.260169458575547
-0.297289133537561
-0.668590309098363
-0.472653159406036
0.174032882787287
-0.733609656337649
0.142442803829908
0.692175414878875
0.278912677429616
0.856583307962865
-0.267075544223189
0.394902201835066
-0.69218887668103
-0.604242532048374
-0.505998216569424
0.985305853653699
-0.520163674838841
-0.169472434092313
0.914119591936469
-0.817534135188907
0.274663099087775
0.480654401239008
-0.300984527915716
-0.450261841993779
0.18241090234369
-0.336565521080047
0.268668042495847
-0.145503704901785
-0.12265011202544
-0.562769717071205
-0.150051683187485
0.406388313043863
-0.71581491548568
0.80789117468521
-0.116275804117322
-0.0321408151648939
-0.494331299327314
-0.758185083512217
0.965168084949255
-0.669311095
1.0005
0
1
0
-1.25
1.25
