Atriatix v0.001
2
0.201657809500597
5.66627623465464
17.2370323542009
-0.639594359824518
8.0384727298352
7
-9
-5
14
0.1
1
1
-0.099144811
0.48687877971679
0.368778245
-0.236986794974655
0.03702657
0.0670381672680378
0.495579783
0.17450483655557
0.219209116
-0.211903725750744
0.084214396
-0.302515770774335
0.048567406
-0.415657205507159
0.198464537
0.362533572595567
-0.013638003
0.0538285607472062
0.037324605
-0.0416739708743989
-0.305535439
-0.151558771729469
0.322879359
0.158517824020237
-0.392681666
0.221207520924509
0.474315155
-0.420695602428168
0.157218876
-0.1598029602319
0.11493898
-0.497984379995614
0.324790148
0.22840263415128
-0.290919683
0.245125068817288
0.436530896229669
0.43897233530879
0.375750806415454
0.420048368629068
0.38130635372363
-0.174832147546113
0.175936728017405
-0.444894406478852
-0.332339749904349
0.0144246313720942
0.420399295398966
-0.177977268118411
-0.0061778633389622
0.445888475514948
-0.205142239807174
-0.150652786251158
0.252285022987053
0.0808037295937538
0.349430330330506
-0.142847499344498
0.140828326111659
0.14512802567333
-0.350792099488899
-0.402593262027949
-0.198138867737725
0.0137485917657614
-0.367164404829964
-0.165619530249387
0.161960771074519
-0.404324877075851
-0.0240228760521859
0.349468416068703
-0.106518297689036
-0.170415785163641
0.00653694965876639
-0.295199687127024
0.170109715079889
0.149090359918773
0.468515268759802
0.250015814322978
-0.361763560445979
0.0271185059100389
-0.318629195680842
0.106578457634896
0.276029171189293
-0.0412468230351806
-0.10823358851485
0.114003690425307
0.0620710074435919
0.491939157247543
-0.135427504545078
-0.0276240394450724
-0.374553703004494
0.165408737026155
0.0100032419431955
0.0655298684723675
0.299146401463076
0.463210521265864
-0.40623933984898
-0.300729617942125
0.248670769622549
0.145214800722897
-0.172938561765477
-0.260992886032909
-0.402301675872877
-0.437029514461756
-0.116578388726339
-0.118822338525206
-0.277295839274302
-0.179711398668587
0.139074041740969
0.0428350088186562
0.138396559981629
-0.112072652205825
0.183893712470308
-0.396226007957011
-0.354150688508526
0.0317537197843194
0.399705832125619
0.485571826342493
-0.334795649396256
0.163756690919399
0.152851753169671
0.301917695906013
0.428
1.0021
0
0
0
