Atriatix v0.005
65
0.063842239840145
-0.262505696614582
36.2859195963542
1.65764078776042
29.068959757487
174
96
24
10
0.1
2
1
-0.092367975
-0.868591028265655
0.000990362
0.893884517252445
0.540810831
-0.524682243354619
0.085217438
-0.488517472520471
0.476348414
0.716915198601782
0.743611676
0.209785733371973
0.771008898
-0.936638229526579
-0.871325341
0.834798144176602
0.5722928
-0.660437609069049
0.3019427
0.879259914159775
-0.230806142
0.616950604133308
-0.747092262
0.952251834794879
-0.7847785
-0.296399115584791
0.224578863
0.782002951949835
-0.382561076
-0.0355809340253472
0.689434465
0.470651308074594
0.68526681
-0.559839102439582
-0.180484994
0.219707809388638
0.632802658248693
0.734028722159565
-0.205593578983098
0.24497321806848
0.628405748400837
-0.365403718315065
0.790864137466997
-0.900341730564833
-0.714702274184674
-0.0561883533373475
0.997827726881951
-0.875543085858226
0.78692881250754
0.478828270919621
-0.499423822853714
0.243322685360909
0.740859643090516
0.716414171271026
0.377773791085929
-0.176301809027791
0.354908725712448
0.0486892322078347
0.855156709905714
0.819947730749846
0.0293155279941857
0.118940635584295
0.859610061626881
0.918743038550019
-0.0413308120332658
0.206266415305436
-0.182614265475422
-0.0948478505015373
-0.162647149991244
0.127797137014568
-0.959789224434644
0.968181392177939
0.262253625784069
-0.372754297219217
0.543036413844675
0.164520505815744
0.926488180179149
-0.281464719213545
-0.362822290975601
0.759240882471204
-0.802106057759374
-0.0467446399852633
-0.857406175229698
-0.337803065776825
-0.823964058887213
0.0806959299370647
-0.436941072810441
-0.321119414642453
-0.178520733024925
-0.930790214799345
0.067973708268255
-0.205521110445261
-0.748922843020409
0.957652955316007
-0.375432465691119
0.209884772077203
0.793024706188589
-0.494346740655601
0.124241219367832
-0.651589103043079
0.895428203511983
0.111456985585392
-0.153199576307088
0.551956659182906
-0.51785990735516
-0.0338963037356734
0.106329677160829
0.685378301888704
-0.150390441995114
-0.0873208427801728
0.4224570277147
-0.632187841460109
-0.30150126433
-0.0206036074087024
0.0607593148015439
0.0497010201215744
-0.606185450684279
-0.944745135493577
0.28605806780979
0.654273627325892
0.047306171
1.0113
0
0
0
-1.25
1.25
