Atriatix v0.005
61
0.114285714285714
3.79166666666669
24.2083333333334
2.04166666666666
17.3541666666667
109
148
-2
41
0.1
2
1
-0.04900668
0.794217448681593
0.344847467
-0.238732920028269
0.613326024
-0.508508449420333
0.312005254
-0.235335725359619
0.286712678
0.232225097715855
0.343658753
-0.142217536456883
-0.098833539
-0.578144917264581
0.743848397
0.44510115031153
-0.59952839
-0.113763716071844
0.676516045
0.0196694796904922
0.116573069
0.118589507415891
-0.724753802
-0.913187707774341
0.263106757
-0.877847045660019
0.731522829
-0.0195856960490346
-0.108179525
0.567286713048816
-0.044748151
-0.459467588923871
0.155635422
0.481780376285315
-0.09870081
0.121086119674146
0.222098346333951
-0.806886216625571
0.155794518534094
0.896376100368798
-0.319025679025799
0.741420887410641
0.875950567889959
-0.0648191319778562
0.789730138611048
-0.518093252554536
0.677148102317005
0.0111815864220262
-0.599341663066298
0.0954676456749439
-0.438963498454541
-0.381535002030432
-0.0866081533022225
-0.273735670372844
0.4783999719657
-0.839145521633327
0.0965592651627958
-0.535001620650291
-0.379460617434233
0.783819216303527
0.122330754529685
0.89664169959724
0.0329197258688509
0.817711518146098
0.657604565378279
-0.068630862981081
-0.355166796129197
0.301082237623632
-0.644415814895183
0.637444222345948
-0.691172061022371
-0.44717566948384
-0.408503888640553
0.29480803757906
0.943652309942991
-0.738105465658009
-0.213801749516278
-0.611878791823983
0.374464912805706
-0.936636826954782
0.161428940948099
0.758009020239115
-0.0359398531727493
-0.930457913316786
0.270446601789445
0.62925966270268
0.628859425429255
0.324940686114132
-0.85218999395147
0.734725594520569
-0.666581987868994
0.65380013268441
0.422049179207534
-0.746321963146329
0.657197481486946
0.868955642916262
-0.765023077372462
0.783364590257406
-0.472646194975823
0.810776918195188
0.311390961986035
0.0625199768692255
0.711291062179953
-0.815063300542533
-0.97708327928558
0.665579907596111
-0.837269223760813
-0.332242553122342
-0.210259281564504
0.386348074302077
-0.184953124728054
0.247886144556105
0.663984594400972
-0.470133733004332
-0.0843837219290435
-0.72695276979357
-0.561530244071037
0.831237616017461
-0.505064894910902
0.170623649843037
-0.875377348
1.0003
0
0
1
-1.25
1.25
