Atriatix v0.001
3
0.233444931385485
1.10619859054447
11.1014181032797
0.12441497164887
7.62082960620028
-108
-74
15
55
0.1
1
1
-0.421766265
-0.207027590833604
0.131969628
-0.0738199478946626
-0.493120793
0.276237115263939
-0.209527924
-0.360452188644558
0.227800302
-0.0997224831953645
0.252965915
-0.110937892924994
0.288526955
-0.0906649101525545
0.023617512
0.360349684488028
-0.308832499
-0.0661754412576556
0.103865721
0.057430996093899
0.189955064
0.165565829724073
0.30608156
0.0585185415111482
0.007739249
-0.372257512994111
0.040860682
-0.360020730178803
0.393298163
-0.351038148626685
0.124823677
-0.497163955587894
-0.308654269
-0.0992083987221122
0.40579917
0.0861831703223288
-0.152890662895516
-0.391852043569088
0.252264745766297
0.201890984084457
-0.482647225493565
-0.208089576102793
0.203920672880486
0.474974506068975
0.209719503996894
-0.346861893311143
0.330271451035514
0.324001155328006
0.122271230211481
0.458262574858964
0.0940901648718864
0.465912526939064
-0.394903212087229
-0.465367700904608
-0.233359347796068
0.179635231848806
0.415866341209039
0.235783646814525
-0.308467515511438
-0.187144200783223
0.191205895273015
-0.0141865592449903
-0.0559162402059883
0.266334641259164
-0.194232879439369
-0.237771919928491
0.183066708268598
0.440134080592543
-0.459132510470226
-0.373355776071548
-0.258288889890537
-0.123864559922367
0.234575725859031
0.162716037593782
0.25484052603133
0.0812201951630414
-0.164882433833554
-0.0693359989672899
0.369016340235248
0.265490188729018
0.0294768342282623
0.297780280001462
0.332564615877345
0.479901908431202
-0.130933172302321
0.254285659641027
-0.487639236962423
0.387689826544374
-0.435652982676402
0.0739130405709147
0.134247019188479
0.153953802306205
-0.129739941330627
-0.0714075025171042
-0.206042257836089
0.187785546761006
-0.265635883668438
-0.183387099765241
-0.464572484372184
-0.27869084989652
0.129535500658676
0.413635097444057
-0.456642932957038
0.460010671522468
0.243116616969928
-0.294068337418139
-0.253088001860306
-0.211268208455294
0.444384227273986
-0.484771797433496
-0.118570672115311
0.267702526878566
-0.297786975512281
0.274521228857338
-0.194993152050301
0.402988007757813
0.374809519154951
-0.335752408951521
0.116850290680304
-0.0742756822146475
0.034712991
1
0
0
0
