Atriatix v0.005
62
0.0103742118119059
67.1093017443982
292.025987044337
23.1471267977028
191.834640772657
-25
-2
16
10
0.1
2
1
0.441015371
-0.874367554672062
-0.041749157
-0.641050646081567
0.000181569
-0.856423906050622
-0.210608261
0.376063976436853
0.164289762
0.21421433147043
0.680178675
-0.0464757215231657
0.846953745
-0.506981517188251
-0.155020005
0.848230570554733
0.757968039
0.65542599838227
-0.20669283
-0.230638699606061
-0.248669648
0.0119527587667108
0.78037632
-0.993819329887629
-0.160720337
-0.0466164955869317
-0.091939632
-0.692200621590018
0.466099935
-0.305209609679878
0.719981806
-0.766361512243748
0.135439449
-0.212870334275067
-0.3655039
0.693346416577697
0.984895764384419
-0.634833521209657
0.0593157089315355
0.89491905644536
-0.59838369069621
-0.399522193707526
-0.46847526403144
-0.580226985737681
0.272664586547762
-0.671716491691768
-0.27326579997316
-0.35647802054882
0.963902011979371
-0.683144492097199
-0.318872064817697
0.221206216141582
-0.378864625003189
0.148255095817149
-0.929850886110216
0.855725180357695
0.887279924470931
-0.820851639844477
0.887577395420521
-0.93177673779428
0.629288079682738
0.550449741072953
-0.631253300700337
-0.81082134693861
-0.231406233739108
0.714543710462749
-0.498346396256238
-0.711054662242532
-0.191177622880787
0.448834576644003
0.969706369098276
0.26649821177125
-0.845483641605824
0.824374414049089
-0.130135413724929
-0.184868676587939
-0.18537357961759
-0.90168088208884
0.0499194501899183
0.483859241008759
0.584518373478204
0.998962583951652
0.408664658199996
-0.446728454902768
-0.699754410889
0.372099013067782
-0.997292066458613
0.944590445607901
-0.741162914317101
-0.342536658979952
-0.696326826233417
-0.119318475946784
-0.601648760493845
-0.836000206880271
0.44954322418198
-0.48223239928484
0.331445120740682
-0.387291436083615
-0.16610672371462
-0.733404273167252
0.826209454331547
0.915820621885359
0.876764891203493
-0.978192698210478
-0.171980794053525
0.661050639115274
-0.679069351870567
0.0182613153010607
-0.383850207086653
0.269678045995533
-0.102700582239777
-0.46693928539753
0.188908920157701
-0.702793789096177
-0.29678773926571
-0.84796810336411
-0.528965958859772
0.84534974489361
-0.862621048931032
0.819407325237989
0.437105444
1.0113
0
0
0
-1.25
1.25
