Atriatix v0.005
60
0.0497498966425844
0.365274599047019
47.6201161465425
-4.56272928873983
30.4169288098945
34
154
17
21
0.1
2
1
0.186175177
0.886345495469868
0.750839302
-0.660726681351662
0.350037858
0.940680491738021
0.047231614
-0.80713159032166
-0.283584663
0.465749875642359
0.144347867
-0.933406788855791
-0.827758584
-0.0866874912753701
0.886431586
-0.391088550910354
0.596065196
-0.642733770422637
-0.451266317
-0.775113724172115
-0.342754595
0.864619533531368
0.567370854
0.100472262129188
0.812410368
-0.147208622656763
0.200824601
0.88501051440835
-0.407066416
0.901989108882844
-0.533169117
0.750676916912198
-0.222825055
-0.00858547817915678
-0.801589614
0.0476334989070892
-0.458762436639518
-0.371951964683831
-0.437210575211793
-0.726367073133588
-0.818009757902473
-0.163239001296461
0.8869614652358
0.576826121658087
-0.493894446175545
0.480506121180952
-0.866360728163272
0.510523000732064
0.478863554541022
0.879336026497185
-0.128652317915112
-0.741343654692173
0.22647111909464
-0.803000067360699
-0.917592995334417
0.0506987925618887
0.985646902117878
0.56386845652014
-0.347442957106978
0.984782952815294
-0.905778076034039
-0.595063456334174
0.88597174314782
-0.0222253482788801
0.616505781654269
-0.0583454770967364
0.889414468314499
0.061049297451973
0.697168484795839
-0.663662713952362
0.169283896218985
0.740721372887492
-0.762612083461136
0.447901592589915
-0.714699456933886
-0.358922947198153
-0.0129870804958045
-0.332318500615656
-0.0954160881228745
-0.85004005394876
0.646492006722838
-0.195928084664047
-0.900129734072834
-0.715140037238598
0.0723176975734532
0.484750281088054
-0.764378972817212
0.498455306515098
-0.82026352128014
-0.954773626290262
0.28577179973945
0.642357591539621
0.636474390048534
-0.627529763616621
-0.0731279817409813
0.8078100848943
0.941228235606104
0.672368233092129
-0.749634778592735
-0.73791092634201
0.980672419536859
0.629757228307426
0.437759950291365
-0.80064164288342
-0.341268592979759
-0.0702131083235145
-0.757558728102595
0.524726863950491
-0.30813218979165
-0.390639872290194
-0.378127072472125
0.390259394422174
-0.835863900836557
-0.792598369531334
0.36394010623917
-0.29830951243639
0.93575193779543
0.182704563252628
0.0511828432790935
-0.685408586636186
0.498927145
1.0005
0
1
0
-1.25
1.25
