Atriatix v0.005
49
0.126984126984127
0.583333333333343
18.9583333333333
-1.75
12.03125
65
-26
33
50
0.1
2
1
0.984214818
0.214002307504416
0.977783602
-0.07586804125458
-0.940803562
-0.918301274999976
-0.917058361
-0.203026237897575
-0.272977068
-0.219284541904926
-0.41356901
0.401370818726718
0.408369101
-0.392702395096421
-0.566167386
0.287005268968642
0.460532365
-0.107634138315916
-0.498082038
0.448574206791818
-0.588802588
0.545339765027165
0.192765186
0.671370734460652
0.561341473
-0.556335940957069
-0.743609026
-0.980556857772172
0.301030218
0.386788187548518
0.435648015
-0.564917786978185
-0.01814572
-0.166651088744402
0.027138081
0.918386652134359
-0.310243595857173
-0.859693950042129
0.95189073914662
0.25565664190799
-0.238000778947026
-0.477218650281429
0.429557688999921
0.765365521423519
0.392023644875735
-0.54664952494204
-0.150127278175205
0.0304595911875367
0.165947896894068
0.719538126140833
-0.0648726928047836
0.0857360428199172
0.874457153957337
-0.141733719035983
0.787411803845316
0.0290490137413144
0.443833821918815
0.186005562543869
0.914372295606881
-0.474906233139336
0.32987843407318
0.143379731103778
-0.172766947653145
0.170518995262682
0.218471174594015
0.172973301261663
-0.695165384095162
0.189117251895368
-0.62347597302869
0.849092284217477
0.917437511030585
0.4258435042575
0.497073547448963
-0.521771945059299
-0.0959584186784923
0.108411814086139
0.382264263462275
0.888974344357848
-0.00302904983982444
-0.654779857955873
0.307972697075456
0.630147356539965
0.287474606651813
-0.171646722592413
-0.586177986580878
-0.704140989109874
-0.2739073834382
-0.289586107246578
0.962337294127792
-0.80370669066906
-0.648462041746825
-0.87606827635318
-0.189008564222604
-0.907064171507955
0.84184398362413
-0.687899126671255
-0.059108326677233
-0.782993663102388
0.481527504045516
0.839595242403448
-0.614143271464855
-0.71015546284616
0.138517501298338
0.852212083525956
0.405634583439678
0.763998933136463
-0.655400536488742
-0.14590631891042
-0.752989121247083
-0.996231177821755
-0.926874653901905
0.971277155913413
0.336557937320322
-0.376050587743521
0.307739157695323
-0.829677605070174
0.248774412553757
-0.294469935819507
0.995868171099573
0.400768105871975
-0.706634438
1
0
0
1
-1.25
1.25
