Atriatix v0.005
61
0.274285714285714
0.875000000000014
9.38194444444445
0.875
7.25520833333333
84
60
50
34
0.1
2
1
-0.585073974
-0.446010717190802
0.983896572
0.355704458430409
-0.427316864
0.180182893760502
-0.00473567
0.281338647007942
0.878815428
-0.229427021928132
0.595467239
-0.728337498381734
-0.482784369
0.0976505139842629
-0.587903092
0.790317665785551
-0.06549007
0.536636277101934
0.531706433
0.822315717115998
-0.683013318
0.825124395079911
-0.826971828
-0.38487296551466
-0.828959248
-0.659695972688496
0.948082141
-0.64077720977366
0.600883468
-0.137490830384195
-0.445074963
0.0268200673162937
0.377268214
0.293846583925188
0.245789889
0.0875801015645266
-0.609018360730261
-0.699348147027194
0.914366328623146
-0.679990351200104
-0.415149509441108
-0.651476440019906
-0.854028508532792
-0.562684522941709
-0.0419859229587018
-0.901314406655729
0.0743615380488336
0.746461983770132
0.736212354619056
0.634427576325834
0.388933803420514
-0.440818062052131
-0.698160362895578
-0.513626578263938
0.336069570388645
-0.426309652626514
-0.0224860678426921
-0.0746719883754849
0.0583674679510295
0.945851450785994
0.256911902222782
0.491452001966536
-0.884482505265623
-0.731451164931059
0.57661945046857
-0.771485247649252
0.530565667431802
-0.821991322562099
-0.777252068277448
0.591975380666554
-0.794680705759674
-0.194173887372017
0.466065988410264
0.499641942791641
-0.951357126701623
-0.204555274918675
0.519397011492401
0.493658737279475
-0.338605383876711
0.101839166134596
0.411032226402313
0.482571735046804
-0.0782464039511979
-0.706849103793502
-0.632090596016496
0.0322221340611577
0.314687521662563
0.573027051985264
0.802307196427137
0.674218039028346
0.349311135243624
0.242412438616157
-0.50419490179047
0.200734266079962
-0.0921147638000548
-0.180455353111029
-0.925740967970342
0.414390272460878
-0.129793670494109
0.536902295425534
-0.632457440253347
0.301956211216748
-0.142863100860268
-0.566143602132797
-0.2521962816827
-0.899362889118493
-0.562973693478852
0.763774855062366
-0.960012519266456
0.225685180164874
-0.361227686051279
0.934330072253943
-0.901626158040017
-0.471909762360156
0.115273233037442
-0.300240298733115
-0.357118470128626
-0.148901733569801
-0.198979301843792
0.823830507695675
0.448887341
1.0215
0
1
1
-1.25
1.25
