Atriatix v0.005
62
0.104613900624261
0.196587867666608
22.5008258265772
1.78004169420866
18.5082201633916
-25
-2
16
10
0.1
2
1
0.439090022
0.742624089121818
-0.635222449
-0.058191847987473
0.377515912
-0.0949801225215197
0.768322578
0.118535594083369
-0.937975983
0.361211758106947
0.364023116
-0.596834168769419
-0.322077681
0.714985722675919
0.057039591
-0.747346657328308
0.665744932
0.447820939123631
-0.851189188
-0.855592985637486
-0.236389496
-0.494318256154656
-0.853986071
0.996089943684638
-0.018778759
-0.455987241119146
0.860540022
-0.959502630867064
0.849252555
-0.450312865898013
-0.605764692
-0.875737274996936
0.787883335
-0.941342085599899
-0.897842019
-0.100858178921044
0.938216849695891
0.688062531873584
-0.871899330522865
0.87462514732033
-0.699657733086497
0.201530423015356
0.606128525454551
0.800628303550184
0.521786804776639
0.826443770900369
-0.878117067273706
0.349010554142296
-0.819891496095806
-0.958098627626896
0.527400844264775
-0.437328492291272
0.903379626106471
-0.443864369764924
0.703199742827564
-0.959024078212678
0.172310677822679
-0.307867329567671
0.361378226894885
0.330256632529199
0.147765058558434
-0.09979441575706
0.483482221607119
-0.511854390613735
0.367414334323257
-0.383729204535484
0.486886814702302
0.290483134798706
0.655284136068076
0.184577552601695
-0.286556282546371
0.0495551088824868
0.0879406831227243
-0.936359453946352
-0.665855649393052
-0.487591520883143
0.361067931633443
0.0341256503015757
0.263548555318266
0.807994795031846
-0.599814651999623
0.62743879109621
-0.822271070908755
-0.0881081121042371
-0.440743692684919
0.493767937645316
-0.770519213285297
0.597353675402701
-0.749062883201987
0.928328219801187
0.554547746200114
-0.658561908639967
-0.647783335763961
0.274560170248151
0.162612939719111
-0.845036859624088
0.229196691419929
0.423031091690063
-0.693194150459021
0.805041077546775
-0.275237307418138
0.124789549037814
0.925474768970162
0.398940713144839
0.952895437832922
-0.662077013403177
0.249974888283759
0.798027842305601
-0.756626878399402
-0.67393152974546
0.172222005669028
0.83053379971534
0.0806141360662878
-0.27237344533205
-0.534238136839122
0.771902139298618
0.380410469602793
0.314428275451064
0.45410510757938
-0.938536561094225
-0.05169827
1.0113
0
0
0
-1.25
1.25
