Atriatix v0.005
61
0.138883452102838
11.1055248119213
27.906182471306
4.63478729745372
17.2352805419922
109
35
31
54
0.1
2
1
0.086396867
-0.0170117318630218
0.007623226
0.470535430125892
-0.859478191
0.0512718986719847
-0.172429645
0.414087832905352
0.333226984
-0.331189546734095
-0.418189097
0.500451325438917
0.252957578
-0.732424041256309
0.378935474
0.516231265850365
0.551002102
0.195319555699825
-0.085757263
-0.779364143498242
-0.063024216
0.0679884906858206
0.106824397
0.905900948680937
0.855944601
-0.469653766602278
-0.222334232
-0.837207027710974
0.190939921
-0.856454281136394
-0.037488004
-0.180060009472072
-0.165386221
-0.381594285368919
-0.046750113
-0.474259120412171
-0.526215225923806
-0.886859687045217
0.661555370781571
0.941602633334696
0.430624594446272
-0.185708452016115
0.398556586820632
0.0152557929977775
-0.0957648348994553
0.519615137949586
0.664262595120817
-0.697101998142898
-0.543633578810841
0.441669352352619
0.0405077119357884
-0.19108431506902
0.0850247065536678
-0.0491429958492517
0.781161470804364
0.311933853663504
0.72972179716453
0.476670566946268
-0.806645791511983
-0.354055964387953
-0.44788545044139
0.285890417173505
-0.596531724091619
-0.0947396708652377
-0.16421482572332
-0.643513798713684
0.601644874084741
-0.957946416921914
0.848912134300917
-0.93402867205441
0.358556515071541
-0.174786298535764
0.513581668492407
0.912960585206747
-0.891804892104119
0.629290073178709
-0.774510059971362
0.990680882707238
-0.609574330504984
0.022260126657784
0.667785809841007
-0.568814881145954
-0.0529443393461406
-0.379123990423977
-0.0371957649476826
0.539019173011184
-0.734830053057522
0.182339393533766
0.00544029241427779
-0.166907977312803
-0.338518615346402
0.401054403744638
-0.678086173254996
0.715498985722661
-0.498552968259901
0.379208673723042
-0.702325275633484
-0.013951912522316
-0.353100016247481
0.239932524971664
-0.881801188457757
-0.0787604469805956
0.725946834776551
0.851786271668971
-0.733575622085482
-0.863551575690508
0.318880763370544
0.13332565035671
0.920579324942082
0.950060302391648
-0.346139756496996
0.906495374627411
-0.903851060662419
0.468310214579105
-0.0938966195099056
0.767600814811885
-0.124265708494931
0.109574606642127
0.694347871933132
0.944607802666724
0.570551259
1.0003
0
0
1
-1.25
1.25
