Atriatix v0.005
65
0.0656185919343814
-6.70833333333333
28.8506944444444
3.5
30.1692708333333
135
-21
24
10
0.1
2
1
0.351435558
-0.898887671530247
-0.726165957
0.734229589812458
-0.104369514
-0.122807824984193
-0.455006303
-0.379998154006898
-0.144778939
0.73308839276433
0.135675882
-0.763159879483283
0.793658573
-0.617946473881602
-0.407876214
-0.284137289039791
-0.133953771
-0.402837797999382
0.267503515
-0.238135022111237
0.791185051
0.446540622040629
-0.626948455
0.284056649543345
-0.119739602
-0.188200820237398
-0.554762188
-0.893122748471796
-0.534080882
0.908418202772737
-0.177305577
0.729639661498368
0.575487317
-0.973163180053234
-0.773340009
-0.396248211152852
-0.807921238709241
0.212994953617454
0.0386895970441401
-0.103733620606363
0.947343898471445
0.107078436762094
-0.630619626026601
-0.791491054929793
-0.410390492994338
-0.340782744809985
0.511862719897181
0.218533818610013
-0.928841030690819
0.940886914730072
0.873807132709771
0.716158333234489
-0.40159682976082
0.770762933418155
0.981696671340615
0.999325127340853
0.488692020531744
0.373778458684683
-0.34888495830819
0.100542574189603
-0.822483394760638
-0.207864990457892
0.916800307575613
0.812153336592019
0.21985195716843
0.267016343772411
0.816214226651937
-0.0208189534023404
0.629390455316752
0.309755450114608
0.620377211365849
-0.971494889818132
0.399415848311037
-0.318795334547758
-0.394281085114926
0.203113636933267
-0.450932097155601
-0.00194108299911022
0.960694442037493
0.470184494741261
-0.461252322886139
-0.815117910504341
0.920916185248643
-0.428255510516465
-0.601586580742151
-0.509413482621312
-0.273448714520782
-0.813343330286443
-0.587482909206301
-0.711884398013353
-0.504265281837434
0.672685756348073
-0.29466848494485
-0.623920446261764
0.607748004142195
-0.642608302645385
-0.429581849370152
-0.99890574067831
0.689713545609266
-0.153398652561009
-0.112014510203153
-0.68042672611773
0.800554587040097
-0.680791727267206
-0.526111918035895
0.517722938209772
-0.0940291988663375
0.277050680480897
0.704016182105988
-0.691509379073977
-0.761820500250906
0.718617473728955
0.257826024200767
0.0242160856723785
0.634172469843179
0.205332431010902
-0.67523928033188
-0.976264016702771
-0.55376156559214
0.789166511036456
0.117311781
1.0113
0
0
0
-1.25
1.25
