Atriatix v0.005
62
0.0559184066868161
6.79424964916083
48.5217142101899
4.85140683955442
36.1470052603263
167
75
0
10
0.1
2
1
0.20856509
-0.389070280827582
0.587324339
-0.658528773114085
-0.780343374
-0.619251410476863
-0.29841598
-0.294606849551201
0.336368219
0.119738298468292
0.523300677
0.19586387090385
0.438393375
-0.42060626950115
0.075085451
0.751622688025236
0.847846564
0.0123770674690604
-0.669301529
0.29371633566916
-0.068808076
-0.442838656716049
0.013266624
0.0915878489613533
0.804687597
-0.859747876413166
0.981391958
-0.93138144351542
0.737095697
-0.135262689553201
-0.953099298
-0.734126802533865
-0.656592112
0.35391507204622
-0.432017085
0.182798163965344
-0.836663400288671
0.0187498973682523
0.66147276153788
-0.786377131938934
0.71832186030224
0.71790677588433
-0.621980593074113
-0.101785765960813
0.640803760383278
-0.220886497758329
0.683898543473333
0.20613431558013
-0.0304894628934562
-0.149398894049227
0.593214537482709
-0.427348962053657
0.204512285534292
-0.448627593927085
-0.70575679698959
-0.0945479348301887
-0.784209705423564
-0.610951309092343
0.61366520030424
0.280811792239547
-0.400927992071956
-0.0859554773196578
0.662440059240907
-0.452038537710905
0.572681610006839
-0.421179332770407
-0.992929172236472
-0.439587591215968
-0.990843763109297
0.270965148694813
0.210009345319122
0.252982422709465
-0.304622187744826
0.988852429203689
0.0829521412961185
0.283275244757533
-0.585029491689056
0.628630713559687
-0.503223041538149
-0.543636817485094
-0.0532861682586372
-0.648712621070445
-0.90813009859994
-0.348577147349715
-0.427278665360063
0.498542529530823
0.732593209948391
-0.530925951898098
-0.809865049552172
-0.473679323680699
0.0496436576358974
0.318171730265021
-0.379915045108646
0.924550541676581
0.914051575120538
0.160801146179438
-0.79233444808051
0.592042989097536
-0.813429501373321
-0.365773929283023
-0.693323915358633
-0.36480292212218
-0.413792556617409
-0.231459826231003
-0.257122128736228
0.0592842428013682
0.0216438020579517
-0.981228487566113
0.849516666028649
-0.678939401172102
0.229296868201345
-0.169809851795435
-0.831139254849404
-0.788542629219592
0.0617719846777618
-0.544431110844016
0.41350461775437
-0.962900551967323
-0.729544682893902
0.243147157132626
-0.218811638
1.0006
0
0
0
-1.25
1.25
