Atriatix v0.005
62
0.374621697022873
0.340727430555576
6.56923301866321
0.0438335503472187
4.71521274142795
171
145
0
10
0.1
2
0
0.225028918
-0.67398823518306
-0.349232138
0.719949064776301
0.523815683
0.487736956216395
0.804210027
0.2405378036201
0.040133324
-0.631383226253092
0.367176543
-0.841245597228408
0.700870784
-0.215751725248992
-0.176585583
0.42214248329401
0.387789138
0.363651673309505
-0.080901064
-0.733050415292382
0.308981551
-0.218429855071008
0.699332697
0.77562228217721
-0.338651131
0.445847756229341
-0.179964748
0.811254428699613
-0.822159176
0.608635519631207
0.978973383
-0.452261477708817
-0.346787124
-0.629824426956475
0.809681996
-0.685629801824689
0.0420486689545214
-0.456086515448987
-0.917974347714335
0.973655845969915
0.222798120696098
-0.148311317898333
-0.446849290747195
-0.448926648125052
0.0215811305679381
0.417753008194268
-0.687421901617199
0.33553596585989
0.589506917167455
0.0303673995658755
0.965186722110957
-0.830690706148744
0.727258978877217
0.139726691879332
0.495837477501482
-0.853868585079908
-0.749304320197552
-0.93903745058924
0.159387904684991
0.436286123469472
0.991216460708529
0.350974519737065
0.239847460296005
0.457379296422005
0.524643674958497
-0.172160786576569
0.0224234159104526
0.109568385407329
0.222370049450546
0.201547608710825
0.822207381483167
0.293995033949614
-0.281478229444474
0.784820481203496
0.41325245378539
-0.566829180344939
0.386887195054442
0.252751958556473
0.701790989842266
-0.787933878600597
0.921361186075956
0.920031200163066
0.987343005370349
0.258652111515403
0.613655074033886
-0.495507798157632
-0.344534801784903
-0.0173541270196438
-0.577977757435292
-0.15425827447325
-0.354109403211623
-0.708791358396411
0.424749339465052
-0.452384646050632
-0.460191166494042
-0.599652826786041
0.752163112629205
-0.986788329668343
0.61003704322502
0.460768235847354
-0.409097129013389
-0.158745436929166
0.677831386681646
0.216936226934195
0.354208570439369
0.0525336554273963
0.120089198928326
-0.581916084513068
0.611974524799734
0.115172860212624
-0.129308237228543
-0.800073690712452
-0.12568125827238
0.237477059476078
-0.240262292791158
0.155827647075057
-0.177582116331905
-0.102893090806901
0.0344170308671892
-0.683828484266996
0.080357854
1.011
0
0
1
-1.25
1.25
