Atriatix v0.005
61
0.133270245913682
0.16284722222224
17.6711313657408
0.607881944444463
13.7390950520834
44
35
0
10
0.1
2
1
0.67430093
0.0470174411311746
-0.146366308
-0.153487671166658
0.333036956
0.492039962671697
-0.002432365
-0.0291644092649221
-0.969344614
-0.3761854050681
0.19321257
-0.775283984839916
0.637320616
0.138378153555095
0.146826796
0.769816180691123
-0.386798994
-0.904150209389627
0.45539279
-0.42701792344451
0.202194471
0.264058924280107
0.199756864
-0.253058655187488
0.010419691
0.386001293547452
0.15690943
-0.0132953524589539
0.063222945
-0.160126862116158
-0.024844096
0.82042015902698
-0.065549427
0.660433501936495
0.155928229
-0.106568817049265
-0.958262938540429
-0.60955533478409
0.185987021308392
0.00428689457476139
-0.298441243823618
0.730940696783364
0.663764344062656
-0.888543792068958
0.0378031958825886
0.459074134938419
-0.236402892041951
0.0294947680085897
-0.662395925726742
0.582290791906416
0.881601092871278
0.0334150679409504
0.948191825766116
0.19758268352598
0.806935596745461
-0.9099903088063
0.308509836439043
0.0245690839365125
0.262208709027618
-0.0651223212480545
0.209346279967576
-0.918844294734299
-0.843226790893823
-0.286095978692174
-0.124268421437591
0.470522002317011
-0.603336910251528
-0.592057723551989
0.96535148890689
-0.251813397742808
0.594920705538243
-0.240549689158797
0.0767258130945265
-0.162099140696228
0.526064546313137
0.919829167425633
-0.13909726543352
0.965120534412563
0.668447635602206
-0.463784942403436
-0.669581220950931
0.576805599965155
-0.32174344593659
-0.503525521606207
0.459274400491267
0.716298169456422
0.138901087921113
-0.948847545310855
0.667675192002207
0.822028552182019
0.429544502403587
-0.468876093626022
-0.714711278211325
0.41879943292588
0.0565244401805103
-0.62030185945332
0.586766994092614
0.670398176647723
-0.708585555199534
-0.282073531299829
0.493284535128623
0.262287258170545
0.459476109128445
0.161862948909402
0.53384210402146
-0.416877183131874
0.722251848783344
0.110528253018856
-0.839913971256465
-0.326148663647473
0.698048300575465
-0.776673341169953
-0.991606832947582
0.913134449161589
-0.235939654055983
-0.694333832710981
-0.797028507571667
0.907851866446435
-0.616114240605384
0.321531744673848
0.293726305
1.0003
0
0
0
-1.25
1.25
