Atriatix v0.005
65
0.063842239840145
-0.262505696614582
36.2859195963542
1.65764078776042
29.068959757487
174
96
24
10
0.1
2
1
0.843767782
0.830233316868544
0.260644582
-0.606158480979502
-0.080857445
0.110295886173844
-0.27036467
-0.154143351130188
0.53288451
-0.960865937173367
0.133452602
0.957996825687587
-0.966536142
-0.385530004277825
0.23756261
-0.0581295406445861
-0.099690633
-0.159618880599737
-0.402979504
-0.253906899131834
-0.756801989
0.599248396232724
-0.20878846
-0.395006502978504
-0.579214758
0.119407683610916
-0.362892001
-0.520102229900658
-0.877974108
-0.242745773866773
0.974791563
-0.638258277438581
-0.24576431
-0.687449727207422
0.118991446
0.903761266730726
-0.518456582445651
0.595685819163918
0.570388095919043
-0.646989020518959
0.757483677472919
0.465642474591732
-0.919567472767085
0.249460781924427
-0.304519705940038
-0.942589545622468
-0.336568714585155
-0.138579255901277
0.120970336254686
-0.582391303032637
0.649647031445056
0.826044014655054
-0.351081233937293
-0.732941893860698
0.37316475296393
0.963657875545323
-0.369526288006455
0.109057918190956
-0.411726399790496
-0.265327078290284
-0.68748763250187
-0.597884805873036
-0.791885653045028
-0.692179634235799
-0.946172485593706
0.0158774368464947
0.459342476446182
-0.291532532311976
-0.0582953286357224
-0.31098166666925
-0.95344310766086
0.0157610895112157
-0.347360132727772
-0.292173378169537
-0.57975574536249
0.0773493750020862
0.900948039721698
0.524248084053397
-0.258011059369892
-0.289568445645273
-0.680987941566855
0.532130662351847
0.64069863082841
0.857885873876512
0.112922373693436
0.720422701910138
-0.646404480095953
0.668225650675595
-0.662742710206658
0.422074317932129
-0.654276847373694
-0.0318665476515889
0.132753863465041
-0.122608112171292
0.00171888479962945
0.0963234016671777
0.770619427319616
-0.169404331594706
-0.516398030798882
-0.432518393732607
-0.152766261715442
0.87833053804934
0.348327266518027
0.535034713335335
0.472991751041263
-0.211120136082172
0.0188545812852681
-0.478503410704434
-0.200962983537465
0.51083249412477
0.702483622822911
-0.614856875501573
0.725635705050081
0.0899528749287128
-0.149795408826321
-0.0082348370924592
-0.864058744627982
0.213004292920232
0.750814388040453
-0.439750443212688
0.498899648
1.0113
0
0
0
-1.25
1.25
