Atriatix v0.005
61
0.133270245913682
0.16284722222224
17.6711313657408
0.607881944444463
13.7390950520834
109
35
0
54
0.1
2
1
-0.190599747
0.202954198233783
-0.931278699
0.264985119923949
0.970652758
0.556768828071654
-0.543585631
0.700846929103136
0.658428524
-0.354596861638129
-0.314527315
-0.538880793377757
0.962427775
-0.18273941706866
0.497425237
0.751005485653877
0.896461145
-0.419640821404755
-0.872813672
-0.280801625922322
0.574597141
0.858068809844553
-0.543257902
0.601312171667814
0.803325233
-0.675073341466486
-0.430772324
-0.134731387719512
-0.316515443
-0.208719241432846
0.547144951
-0.422614268958569
0.315708258
-0.894488324411213
0.858470968
0.707919856533408
0.203133447561413
-0.457417688332498
-0.825593041721731
0.594810727983713
-0.554873208981007
0.147665834985673
0.962517980020493
-0.715620262548327
-0.684224282857031
0.0036017345264554
0.699013197328895
-0.0322687029838562
-0.67910474492237
-0.109070000238717
0.0439167763106525
-0.768392669036984
-0.672699504997581
-0.690746574662626
0.822879408951849
-0.657555107027292
-0.141905325930566
0.328678040765226
0.159380461554974
-0.717613091692328
0.147722887340933
0.240081665106118
-0.398929251823574
-0.244003959000111
0.0505414237268269
-0.52703941334039
0.584005929064006
-0.113578313961625
0.396652726922184
-0.250395632348955
-0.921479465905577
-0.180229913443327
0.88875598134473
-0.0556512260809541
0.760492611210793
-0.04357242397964
-0.866236676927656
-0.383343170396984
0.551748999860138
0.0280869454145432
0.902931675780565
0.686777996830642
0.873361229430884
-0.260773064568639
0.214260211680084
0.22273548040539
-0.544417957309633
-0.808205146342516
0.330903437454253
-0.192608342505991
0.0481725442223251
-0.188157683238387
-0.730650094803423
-0.545658367685974
-0.125130026135594
0.99686411768198
-0.0888834516517818
0.541384915821254
0.175746105145663
0.202590217813849
-0.688291357364505
0.730325230397284
0.681206268724054
0.687980864197016
0.300595392007381
0.341848439536989
-0.638620999176055
-0.362825168296695
0.965951139573008
0.154228602536023
-0.705353683326393
-0.122859209775925
0.117912203539163
-0.905387845821679
0.999064608942717
0.909781796857715
-0.675900661852211
0.791630209423602
-0.929573828820139
-0.522757086902857
0.61115582
1.0003
0
0
1
-1.25
1.25
