Atriatix v0.001
2
0.260645501376529
4.60999332340778
13.562126857309
-0.522433867701037
6.19166628272491
4
-67
-18
14
0.1
1
1
0.160394669
-0.110006092581898
0.437321432
0.499961412511766
-0.160098371
-0.0930531467311084
0.49710657
0.0636375825852156
-0.06972293
0.460007950197905
0.474386198
-0.459820116870105
-0.084923452
-0.348718853201717
0.05131092
-0.0515043772757053
-0.320391912
-0.388835998717695
0.149155635
-0.00860514957457781
-0.029900328
-0.0183149161748588
0.282506554
-0.48597458563745
0.123374524
-0.247619558591396
-0.323856479
-0.224215417169034
-0.13609078
0.433084125164896
0.066492651
0.145082227885723
0.215149604
-0.20199221977964
0.35952428
0.0763305714353919
-0.178040479077026
-0.314515701960772
-0.433028777362779
0.478535493835807
0.231077356496826
-0.412249468732625
-0.30725764692761
-0.165135595016181
-0.0735446054022759
0.0151440710760653
0.491406486136839
-0.317434322088957
0.16635698475875
-0.130910912994295
0.270621578907594
0.312614644877613
-0.0809134773444384
0.308246229309589
0.159384242026135
-0.201538844034076
0.444227243075147
-0.157798406202346
-0.486025436082855
-0.286746299825609
0.316261825384572
-0.362930250819772
0.383471247507259
0.144915089011192
-0.0625491885002702
0.267385826911777
0.206712059443817
-0.131555297411978
-0.163156163645908
0.398661673534662
0.162574591813609
-0.21517770178616
0.302298670867458
0.134981065522879
-0.154547663638368
-0.0141116185113788
0.142383077414706
0.0160089866258204
0.187801071209833
0.0545761398971081
-0.374965522205457
-0.102210032287985
-0.198369439924136
0.459869938902557
-0.110147566301748
0.201710489112884
0.16081656399183
0.15586538054049
0.380898939678445
0.266000445466489
0.296108165523037
-0.255694075487554
0.0968815286178142
-0.215851326938719
-0.0752945945132524
-0.190028928220272
-0.294405810302123
-0.435392460320145
0.186282232170925
0.288291110657156
-0.180508901132271
0.096161596942693
0.407329763052985
-0.0254365745931864
-0.0207318381872028
-0.346664704848081
-0.434305140981451
-0.465854632668197
0.142327369423583
-0.0737852393649518
0.377189011080191
-0.377001311630011
-0.277001034235582
0.409058635588735
0.176142539596185
-0.0220394628122449
0.481396428542212
0.0320729804225266
0.0117791059892625
-0.413883982226253
0.24622341
1.0021
0
0
0
