Atriatix v0.005
62
0.0416863115511659
19.4523935872732
75.4260033049234
25.2914456019885
67.2716528902262
161
137
0
10
0.1
2
1
0.277332205
-0.618950871750712
-0.947260996
-0.840375165455043
-0.149212977
-0.336982950568199
0.870032147
-0.0467198910191655
0.704620569
0.108017532154918
0.714432678
0.973445222713053
-0.697882185
-0.891840983182192
0.424900767
0.307010873220861
0.038181465
-0.0597988720983267
0.396465006
-0.514727639965713
-0.149950264
-0.805856458842754
0.598166742
0.948651264421642
-0.584095248
0.141267975792289
0.28827004
0.997745254077017
-0.214878427
-0.739616688340902
-0.479512732
-0.300543987192214
-0.216092166
0.641023831441998
0.034970308
-0.283054704777896
0.0400840281508863
-0.517649412155151
-0.372182607185096
0.532169106416404
-0.0292456005699933
0.406505895778537
0.592845565173775
-0.970259993337095
0.576618467923254
0.805170949548483
-0.67062123445794
-0.0891324589028954
0.386673178058118
-0.0619234349578619
0.709801542107016
-0.0938732055947185
0.397055672015995
-0.997782953083515
-0.699371613096446
0.255805070511997
0.347776688169688
-0.109482819214463
0.0308386967517436
0.426576697267592
-0.818905415479094
0.858702350407839
-0.598772640805692
0.53325595613569
-0.974720012862235
-0.180878220126033
0.82852096343413
0.434378136880696
0.547521063592285
0.480274900794029
0.218009636271745
-0.0296412827447057
0.0197194213978946
-0.949209155514836
0.358444503042847
-0.687019332312047
0.940926631446928
-0.27338894084096
-0.767049226444215
0.894959880970418
-0.439828623551875
-0.319874947890639
-0.160293546970934
0.888338726945221
0.143427224364132
0.770009256899357
-0.383863321971148
0.700457732193172
0.328471026849002
-0.309480974450707
0.06037367740646
-0.543744615279138
-0.588618057314307
0.778983745723963
-0.356267641764134
0.935646063648164
0.908431086223572
0.200255082920194
-0.3920484832488
0.934726093895733
-0.76288819918409
0.726858347654343
0.74095067428425
-0.480442074127495
0.860060557257384
0.833596987649798
-0.275147461798042
-0.858717559836805
0.735618477221578
0.325360205024481
0.150021087843925
0.0813093772158027
-0.581216518301517
-0.783116301521659
-0.211134714540094
-0.804664107970893
0.656303064431995
-0.916786469519138
0.223158412147313
0.424943233840168
-0.18034231
1.0113
0
0
0
-1.25
1.25
