Atriatix v0.005
63
0.0770465489566613
-1.75
28.5347222222222
1.16666666666666
23.8802083333333
136
26
-4
38
0.1
1
1
0.319039816
-0.445647030137479
0.202185725
0.476639504078776
-0.329866196
0.217609278857708
0.474391304
-0.297751492355019
-0.45411095
0.458960085175931
-0.38586459
0.166505344677716
0.197784464
-0.113858262076974
0.161808772
-0.170091413427144
0.471037512
-0.311135384254158
-0.365921481
-0.133629956748337
-0.061911895
-0.00626743957400322
-0.264014657
-0.088799396995455
0.076027792
0.438888872973621
-0.328326517
-0.197739865165204
-0.090150723
0.0777638722211123
0.10062852
-0.451353546697646
-0.206608756
-0.0287009840831161
-0.463702026
-0.488701654132456
0.249853488756344
0.0780225843191147
0.233969733351842
0.0298876627348363
0.043757371371612
0.301351926289499
-0.135216724826023
-0.0196245308034122
-0.0937734220642596
-0.196502732113004
-0.477251285454258
-0.00239273952320218
-0.414536806056276
-0.0546579165384173
-0.138351342407987
0.347322239074856
0.144294091267511
0.461675029247999
0.408697869861498
-0.318048345390707
-0.323337372625247
-0.268851560540497
0.351835756795481
0.164581206161529
-0.135059342952445
0.250338384881616
0.347526656696573
-0.304547492880374
0.0499358566012233
-0.328718706034124
0.145942946197465
0.225378612522036
-0.26453063939698
0.0118621364235878
0.0804059582296759
0.390448608901352
-0.300601288909093
-0.10157083068043
-0.282040287507698
-0.0476037333719432
0.132961119292304
-0.0499897543340921
0.217952458420768
-0.220992245245725
0.480312039842829
-0.336494314484298
0.195501030655578
0.348943418357521
-0.0998659424949437
0.409232709556818
0.136713017011061
0.0153486183844507
-0.478808913612738
0.396196435205638
-0.337458261055872
-0.487371366005391
-0.0862971183378249
-0.28353756479919
0.188149044523016
0.440762627404183
0.448414863785729
-0.171994141303003
-0.225349086103961
-0.28846832877025
0.465238255215809
0.0854121148586273
0.220120877260342
0.191035838332027
0.423335529631004
0.177804118953645
-0.313273754669353
0.0228753541596234
0.454526173649356
-0.416628899052739
0.410872152308002
0.366370811592788
-0.00811223895289004
0.3998739765957
0.293228411348537
-0.465802551712841
0.395427339477465
0.160502281039953
0.415514182532206
-0.236191513482481
-0.25330187
1.0039
0
0
1
-1.25
1.25
