Atriatix v0.005
6
0.255678730483602
0.278224174665928
9.40426030962313
0.060007408459315
6.90453450967722
60
29
1
18
0.1
2
1
0.545783056
-0.850462368689478
0.833969933
-0.202192511409521
-0.107729982
0.0754290884360671
0.717819843
0.924567030742764
-0.758647924
-0.714067007414997
0.539166802
0.0922358930110931
-0.531648904
0.784123512916267
-0.054294125
-0.799089508131146
-0.11814537
-0.346534251235425
0.557399278
0.863585498183966
-0.387246001
-0.621993840672076
0.442428525
0.160914579406381
-0.73695199
0.461391118355095
-0.912712796
0.866674266755581
0.908162289
0.813463593833148
-0.795235627
-0.13731905259192
-0.953465761
0.873187952674925
0.223568586
-0.0380890183150768
-0.409786369185895
0.936652890406549
0.803342539351433
-0.141426054760814
0.490228811744601
0.658902485854924
0.218818345572799
0.423888996243477
0.0904685412533581
-0.801654619164765
0.956863432656974
-0.933685632422566
-0.196170547511429
0.97249208483845
-0.62983293319121
0.374979984015226
0.20437913807109
0.493770404718816
-0.268682498950511
-0.234926795586944
0.12928486103192
0.254168999381363
-0.468980251345783
-0.656072311103344
0.884257890749723
0.127459059469402
0.364203981589526
-0.283434608951211
0.146263463888317
-0.742255887947977
-0.752225446049124
-0.0505583249032497
0.657246370334178
-0.0969120496883988
-0.286250349599868
0.411143558099866
-0.697377835866064
-0.797029311768711
0.521541559603065
-0.291208922863007
0.668283999431878
-0.661677059717476
0.333127572666854
-0.561108218505979
-0.330124908592552
-0.947111873887479
-0.805138493422419
0.97139834985137
0.348076802212745
0.00466290023177862
0.169675852637738
0.98571933247149
0.423662351910025
-0.0838342932984233
0.963424549903721
0.977433018386364
-0.2939338455908
0.992283458821475
-0.110883616376668
0.454454427585006
0.949218778405338
0.574446343816817
-0.987210991326719
0.0414054282009602
0.248397533316165
-0.500119247473776
-0.175226402003318
-0.789062021300197
0.571842680219561
0.1346903340891
-0.719899883959442
-0.139239504933357
0.520889267791063
0.549515175633132
0.551793217193335
-0.544882657006383
0.912364593241364
-0.193480893038213
-0.659191230777651
-0.0505285449326038
0.277001288253814
-0.173544869758189
-0.913638998288661
-0.782859927043319
0.86761603
1.005
0
1
1
-3.908820506
18.40780559
