Atriatix v0.005
10
3.0986405757994
2.06415464613172
2.81717303476215
0.0618486192491411
0.626612410721965
60
29
1
64
0.1
2
0
0.624485057
-0.69428947661072
-0.667554293
-0.60027270577848
0.056995618
0.71179932076484
0.148929046
-0.745862372219562
0.397999846
0.806505138985813
-0.204509102
-0.524842435494065
0.059387295
0.971053087152541
-0.712856474
-0.817717980593443
0.360800509
-0.0855042720213532
0.223348964
0.143817247822881
0.498751233
0.894294132478535
0.765924284
0.0414072126150131
0.74425225
0.0794770596548915
-0.670162499
0.299013076350093
0.462714842
-0.974871738813817
0.830644091
0.69509581848979
0.049861875
0.726951911114156
0.832314144
-0.523248022422194
0.37740651005879
-0.775333839468658
-0.560799865517765
0.194552518427372
-0.157753459643573
-0.77702518273145
-0.724104680586606
0.976834824308753
-0.387075649108738
0.698867150582373
0.39873276418075
0.462197814136744
0.16710250498727
-0.0360041791573167
-0.517325010616332
-0.89104981534183
0.71380495512858
-0.849117065779865
-0.872655755374581
-0.899738222360611
-0.405826121103018
0.591704222373664
-0.374056593049318
0.56376807205379
0.254492139909416
-0.941598652862012
0.0408175042830408
0.324377801269293
-0.114778626244515
-0.667127669788897
-0.0705941361375153
-0.0909663047641516
0.319805698934942
-0.92400989215821
-0.435665114317089
0.0221763476729393
-0.713008947204798
-0.535800789482892
0.991401440929622
-0.789338791742921
0.61041015246883
0.562440567649901
0.769196895416826
0.936878699809313
0.449183080811054
0.90215443726629
-0.26587824197486
-0.221172539517283
-0.826716502662748
-0.766888539306819
-0.365459045860916
-0.0241092890501022
0.967420474160463
0.917821842245758
0.977829724084586
0.0390657465904951
-0.242814043071121
-0.062727346085012
0.93406014656648
-0.355603445321321
0.551217850763351
-0.02325673494488
0.640078287106007
-0.471640443429351
-0.206871268805116
0.560448897071183
-0.252278028521687
-0.396047525107861
0.81695018010214
0.703762303106487
0.559929184149951
-0.983763674274087
0.999842746648937
-0.948236427269876
0.598487091716379
0.356080535799265
-0.294178466778249
-0.0271319383755326
0.947171691339463
0.750861184671521
0.614247406367213
-0.423717553727329
0.214028084184974
-0.949137628078461
0.526833833
0.9999
0
1
0
2.440778073
9.130827477
