Atriatix v0.005
9
0.250019894522857
1.54177531828706
10.8743659818673
-0.0436942997685241
6.95574869791666
35
25
61
10
0.4
2
1
-0.476583777
0.0555753232911229
-0.620701073
0.229061372578144
0.716115274
0.255190799944103
-0.467413195
0.644600113853812
0.404540105
-0.422857544384897
0.672341955
-0.352342899888754
-0.787284415
0.939894474111497
-0.117415485
0.616829114034772
-0.673893904
-0.766828889958561
0.923947477
0.415339708328247
0.86112237
-0.459509131498635
-0.778652415
-0.29560630209744
0.306893951
-0.276971190236509
0.658296858
0.289734777063131
0.133057278
0.833556978963315
-0.478395258
0.220156261697412
-0.8426906
-0.670787039212883
-0.559779121
-0.143285043537617
-0.233522690366954
-0.448153440840542
-0.338031493593007
0.63139814697206
0.584852902684361
-0.555305398069322
-0.488081517163664
0.713993716984987
-0.316456432919949
0.974133870564401
0.376153934281319
0.305913390591741
-0.0754116079770029
-0.774737845174968
-0.945324471686035
-0.220280900597572
0.533590004313737
0.640057432465255
0.827197372447699
0.383102474734187
-0.505387970712036
-0.633134826086462
-0.924416462425143
-0.273932535201311
-0.138907823245972
-0.810036228038371
0.806675206404179
0.770066076889634
-0.423479048069566
-0.992041903547943
-0.0807415531016886
-0.462162755429745
0.898635991383344
0.329751173965633
0.558922610711306
-0.737301180139184
0.0208820239640772
-0.243156007491052
-0.595440643373877
-0.803957309573889
-0.015113543253392
-0.0792865687981248
0.230252298992127
0.791783021762967
0.477700585965067
0.844018314965069
0.58630728116259
0.486507624387741
0.607556432951242
0.194383594207466
0.943173273932189
0.794082446023822
-0.748110794927925
-0.600487350486219
-0.857996101025492
-0.0665408112108707
0.071375381667167
-0.907622278667986
-0.504390422720462
0.708436051383615
0.783736424986273
-0.144761535339057
0.383550302591175
-0.14187840372324
0.791058116126806
0.731238628737628
0.685119039844722
-0.40314825810492
-0.245624484028667
0.472330861724913
-0.106034251395613
-0.437690120190382
0.209273551125079
0.99227964039892
-0.741887968499213
-0.109399883076549
-0.183746775146574
0.993492324836552
-0.210893592331558
0.637023642659187
-0.66038654698059
0.236428338102996
-0.51592978881672
-0.738691778853536
0.948598525
1.005
0
0
0
-1.159327058
1.208768229
1
1
1
0
0
0
0
1
