Atriatix v0.005
62
0.107536668183568
-0.230902777777754
21.4671223958334
1.16362847222222
17.4371473524306
-20
-34
-97
19
2
2
1
-0.665888945
0.0555702857673168
0.442932453
-0.479203985072672
-0.681009282
0.37241511978209
0.542123588
-0.644741612486541
-0.997804551
0.434699989855289
0.54383839
-0.889793475158513
0.983416162
0.746250560507178
-0.005939351
-0.850163272581994
-0.244978922
0.625841531902552
-0.728668164
-0.209803813137114
0.513945374
-0.358355117961764
-0.366007691
-0.0896109594032168
0.092721456
-0.358618766069412
0.245938153
0.456360551528633
0.353399857
-0.903075652197003
0.774643636
-0.193990587256849
0.888110762
-0.0178912617266178
0.655199301
0.464378177188337
0.370016153436154
-0.0975095834583044
0.614115672651678
-0.942328187637031
0.398402587976307
0.695810757577419
0.546642594505101
0.094854380004108
0.181664593052119
-0.778086507692933
0.341354189906269
0.465573840774596
0.9019286907278
0.560864824801683
0.745749447960407
0.143164983950555
-0.894931953866035
0.338026674464345
-0.133381565567106
-0.938519517891109
0.959857740905136
-0.605166956782341
-0.601075872313231
0.634300070814788
-0.26997932838276
0.524019507691264
-0.823050120379776
0.886067853309214
-0.697085926774889
-0.51194416359067
-0.85853749839589
0.662707730196416
-0.881393332500011
-0.960468268021941
0.316640975419432
0.891266954131424
0.343096436467022
-0.837754301726818
0.890520789194852
-0.642862190492451
-0.370580979157239
-0.748252967372537
-0.00729610165581107
-0.0323925828561187
-0.689603256527334
0.454080943018198
0.263084311503917
-0.029514336027205
-0.633221742231399
0.881486790254712
0.805339301470667
-0.903438742272556
-0.985481178853661
0.923799455165863
0.618936241138727
-0.905364093370736
0.254951193463057
0.374303830787539
-0.896594935562462
0.627886624075472
0.231597160454839
-0.411207560449839
0.728626352269202
-0.999693841673434
-0.262630317825824
-0.60342382453382
-0.535114956554025
0.681971547193825
-0.284084333572537
0.982198171317577
-0.933560229372233
-0.89810920227319
0.100849367212504
-0.543399209156632
-0.197642178740352
0.677177690900862
-0.163373591843992
-0.663504254072905
0.728365723509341
0.547304711304605
-0.575191569048911
0.650687338784337
-0.906534542795271
-0.0178158981725574
-0.160531631
1.0001
0
0
0
1.784197658
1.95013258
1
1
0
0
0
0
0
0
