Atriatix v0.002
1
0.0463821892393321
-3.45333333333334
46.8533333333333
1.4210854715202E-14
37.73
0
0
0
10
0.1
2
1
0.025533472
0.410066059790552
0.59197821
0.597101422026753
-0.402888199
-0.547954539768398
-0.584326646
-0.748635277152061
-0.118649408
-0.392227274365723
0.216585606
-0.884647520259023
-0.761343756
0.282307193614542
-0.464851628
-0.0330846793949604
-0.563300136
0.206094249151647
-0.015962203
-0.828319942578673
0.314845982
-0.86789112072438
0.608890535
0.861638553440571
0.552096881
0.0505773527547717
-0.163087853
0.0531897153705359
-0.867697434
0.890027024783194
-0.142873871
-0.0766153894364834
0.600386341
-0.82658573333174
-0.223986444
0.963124709203839
-0.296663974877447
-0.401919479481876
-0.607706642244011
-0.773936748504639
-0.490289210807532
-0.991713521070778
-0.0654067848809063
-0.608040260151029
-0.398586386349052
-0.270925610326231
0.605761086102575
0.863237556070089
-0.568520623724908
0.730208485387266
0.277567352633923
-0.386505296453834
0.441628562752157
0.58894353825599
0.179547594394535
-0.993282325565815
-0.966663397382945
0.720371539704502
-0.0742640127427876
-0.694051558151841
0.986168830189854
-0.155903494916856
-0.276960673276335
0.0901545770466328
0.417131070513278
-0.844012596644461
0.105001676362008
0.298052491620183
0.874785850290209
0.173759211786091
-0.965290358755738
-0.882366195321083
0.661884233821183
-0.274867904372513
0.720588266383857
-0.559855164960027
0.980263283941895
-0.952681287191808
0.988837560173124
0.0972692184150219
-0.00824085203930736
0.466589643619955
0.556259642820805
-0.399736350402236
0.388885768596083
-0.373333054594696
0.0472265197895467
0.599796749651432
0.569029219914228
-0.265304167754948
-0.901461519766599
0.78524105809629
0.0059076682664454
0.793544479645789
0.395923120435327
0.442168150097132
-0.0879530417732894
-0.710818045772612
-0.0140750077553093
-0.613203121349215
0.786021823529154
0.301884268410504
-0.293064123485237
0.496144741773605
0.938212723005563
0.510018560104072
0.083115681540221
-0.447367625311017
0.588828301522881
-0.944844602607191
0.52495396649465
-0.378108832985163
0.631943475920707
-0.262740791775286
0.180222089868039
0.682524004951119
-0.340696854051203
0.508706835098565
-0.720934017095715
-0.273430861532688
-0.66235847
1
0
0
0
14.717684295
-13.660209039
