Atriatix v0.002
1
0.01
0
233.333333333333
0
175
86
96
47
10
0.1
2
0
0.38942595
0.968615554273128
0.811606519
0.486873711459339
0.290259785
0.569882130250335
-0.581339241
-0.898076421581209
0.145261852
0.147952992469072
0.845802103
0.0289873396977782
0.274475235
0.949039669707417
-0.945931335
-0.776842097751796
0.702876189
-0.154417976737022
-0.356547281
0.373361486010253
-0.180079967
0.00897773914039135
0.091548166
0.470594928599894
0.095727672
0.865514945238829
0.408213612
-0.543758885003626
0.197662752
0.0542579535394907
-0.199998913
-0.0807874677702785
-0.648950575
0.60563612729311
-0.561899624
-0.689327050931752
0.287780753802508
-0.94051412679255
-0.0764510198496282
-0.354912779293954
-0.373432266060263
0.741295758634806
0.543457705993205
0.156349218450487
-0.971421059686691
0.915404753759503
-0.0879981270991266
0.877737884409726
0.972220802213997
-0.9660964012146
0.0899281506426632
-0.385548588819802
-0.509191498626024
-0.200010703876615
0.776327020023018
-0.722530453465879
0.716877495404333
-0.735477272421122
0.666420858819038
-0.952505976893008
0.576885666232556
0.67453939653933
-0.430882347282022
-0.662282886914909
-0.519943906459957
-0.707536704838276
-0.62191966874525
-0.975831692107022
0.345110453199595
-0.0952261034399271
0.490061728749424
-0.0876108771190047
0.808643040712923
-0.761123728007078
0.764255170244724
-0.0908139729872346
0.958885419648141
0.00692433305084705
0.616410682443529
0.868211497552693
0.43861169507727
-0.204652801156044
0.341466829646379
-0.421876800246537
-0.739065587986261
0.518828688189387
0.258448174688965
0.862071291543543
-0.818258921150118
0.657489936798811
0.771378364879638
0.257263853214681
0.972521315794438
0.996025139465928
-0.0600411570630968
0.243360442109406
-0.562665371689945
-0.916459582746029
0.653763182926923
0.488443772308528
0.517668805550784
0.132845809683204
0.00369705120101571
-0.91868048068136
-0.671061056200415
0.577950391918421
-0.0555262076668441
0.218894249759614
0.472377094905823
-0.991489483043551
0.841855640057474
0.317381476052105
0.46606253972277
-0.300018817186356
-0.00158944679424167
-0.983914163894951
0.638842686545104
0.458220524713397
-0.248465323355049
0.042515398003161
-0.669105405
1.00001
0
0
0
19.945948645
4.749808544
