Atriatix v0.002
1
0.0656150231605295
0.211197226725247
35.7721590452519
0.0893309321831666
26.7600522960782
110
55
28
30
0.1
2
1
0.093765521
0.318262934684753
-0.230096459
0.680221918039024
0.024128809
-0.136070298030972
0.957723385
-0.132076947949827
-0.038496579
0.324444349855185
-0.975011069
0.510134189389646
0.114085521
0.855533787980676
-0.175934804
-0.262667241506279
0.977523969
-0.348249085247517
0.40925964
0.72877090703696
-0.513346278
0.0801416095346212
0.58015713
0.804150306619704
-0.651130142
-0.277885150164366
0.96597052
0.220375082455575
0.90289222
-0.957734046503901
-0.755343129
-0.35786713194102
0.346670696
0.902902945876122
0.590549276
0.755053984932601
0.67818111134693
0.643026052042842
0.944254329893738
0.990198747254908
-0.807138244155794
0.94051031395793
0.198565211612731
-0.171377108432353
0.88144053099677
0.176241332665086
0.894140394870192
0.654771131463349
-0.428097276482731
-0.481045864522457
0.518697984982282
0.627448837272823
-0.840650596190244
0.449525168165565
0.00347567955031991
-0.462878159247339
-0.23250355059281
0.943467412143946
-0.48929364560172
-0.881705635227263
0.185564193408936
-0.969621373340487
-0.894140725489706
0.785715078003705
0.424307697918266
0.949092715978622
0.408396929968148
0.263161274604499
0.734937652479857
-0.382715778425336
-0.185202503111213
0.0735511789098382
-0.0653181024827063
-0.365724060684443
0.387592923361808
-0.640865624882281
0.382737572770566
-0.464200338348746
0.00417264038696885
-0.999489638023078
-0.54963610926643
0.519460044801235
-0.140897102188319
0.503225232474506
-0.171134464908391
-0.640348399057984
-0.086288274731487
-0.379303521476686
-0.480783315841109
-0.26932118460536
0.386689518112689
0.182215920649469
0.847075659316033
0.656829388812184
0.879455248359591
0.0947807626798749
0.346940198447555
-0.691849395632744
-0.769961699377745
-0.0124972285702825
-0.140806645620614
-0.139321180060506
0.689225933048874
-0.532654418610036
-0.316209981683642
0.639872085303068
0.512726363260299
0.454940124414861
-0.865665931720287
0.265995884314179
-0.436902520712465
-0.43077181559056
0.336296142544597
0.0202120020985603
-0.984808824490756
0.0296840770170093
-0.386877961922437
0.150120517238975
0.758863313589245
0.0448644543066621
0.303981734
0.9999
0
0
0
5
5
