Atriatix v0.005
1
0.140116376797078
-0.824335719361891
15.8284880737666
0.445320147730069
12.9349379925764
-9
172
50
48
0.1
2
0
-0.504853036
-0.343978294171393
-0.251302641
0.202901752665639
0.674636404
-0.23021678160876
0.092435875
0.263045981526375
0.016600147
0.355736809782684
-0.24751243
0.962770013138652
-0.747217515
-0.0743687292560935
0.052733114
0.24716080352664
0.237036165
-0.109179810620844
0.260389667
-0.99544975720346
-0.327748892
0.571905505843461
-0.490771352
0.0576040223240852
0.940798738
0.725959192030132
0.310684137
-0.906136373057961
-0.367758052
-0.439926943741739
0.496601892
-0.245508547872305
-0.137939315
0.699986672960222
0.937379006
-0.400030953809619
0.975143159274012
0.0825434373691678
0.879244172479957
0.171498477458954
0.727792680729181
0.240724745206535
-0.75557141052559
0.866856826469302
-0.457999879028648
-0.0499877026304603
0.737977480050176
0.849453803151846
0.925731998402625
0.70482852961868
0.104952241759747
-0.290657510980964
-0.347015810664743
-0.00619483273476362
0.381773219909519
0.0949332043528557
-0.202648736070842
-0.157370095141232
-0.514546894002706
0.0341605003923178
-0.787138552870601
-0.406778789125383
-0.0155290388502181
-0.836146723479033
-0.444172795396298
0.387981257401407
-0.604963135439903
-0.413941977545619
-0.558538546320051
-0.672123025171459
0.846497186925262
0.570065185427666
0.829009399283677
-0.226900768466294
0.459630488883704
0.81888866238296
-0.77085400512442
0.755050138570368
0.281584044452757
0.518948417156935
0.827389028389007
0.968408479355276
0.121200989466161
-0.10829377733171
0.117277833167464
-0.687976735644042
0.128488095011562
-0.533995471894741
0.137067623902112
0.447385410778224
0.461974165868014
-0.210141548886895
-0.0963105424307287
0.343427547253668
0.887709063943475
0.800450894981623
0.137725819367915
-0.723598056472838
-0.346346643287688
-0.428919209167361
0.873151833657175
0.25358656514436
-0.516791409347206
-0.34618553519249
-0.954407900106162
-0.670430746860802
-0.9683618103154
-0.263409869745374
0.652843153569847
0.783860028721392
0.649128978606313
-0.166474495083094
0.581411552149802
0.628581522963941
-0.205756668467075
-0.272821446880698
-0.307182413991541
0.414987531490624
-0.0584880546666682
0.881511352956295
0.263414614
0.9999
0
1
0
22
1
