Atriatix v0.005
39
0.0280531165399635
10.5153174623843
93.6908651777103
0.77708628472223
63.1587470712167
48
-26
15
10
0.1
2
0
0.799550312105566
-0.651568564586341
0.982632832136005
0.831622622907162
-0.888494856189936
-0.589316760189831
0.530889458488673
0.380940651521087
0.0135041461326182
0.27389442268759
-0.506114395800978
0.834919411689043
0.499872480053455
-0.104469367302954
0.0881487312726676
0.922192307189107
-0.0562423667870462
-0.70876834820956
-0.358610531780869
0.0288710743188858
0.513511255849153
0.991720574907959
0.752047508489341
0.371275274083018
0.911336621735245
0.111041114665568
0.50547813391313
0.451864909380674
0.52795171411708
-0.505126968957484
0.0905293631367385
0.517126167193055
-0.392982063349336
0.917675686068833
0.660259725060314
-0.763839714229107
-0.486915550660342
0.797409723512828
-0.219453342724591
-0.681274453178048
-0.303201870527118
-0.603413126431406
-0.689664470497519
0.291482392698526
0.451129157561809
0.978397882543504
0.0572792920283973
-0.848808331415057
-0.947637771721929
0.886668567545712
-0.947481250856072
0.113615989685059
-0.620396613609046
0.0183939961716533
-0.211646542418748
-0.823125766590238
-0.393447512295097
-0.342399208806455
0.262553249951452
-0.282000843435526
-0.940708715002984
0.139287560246885
0.173060383182019
-0.158551862463355
-0.16616286104545
-0.687806549482048
-0.893167688045651
0.698317043483257
-0.732787645887583
-0.730855171568692
0.0665750871412456
-0.504992777481675
-0.144220860209316
0.313730084337294
-0.820882620755583
-0.589904379099607
-0.285409803967923
-0.367947437800467
0.929175126831978
-0.861841974779964
-0.828495075460523
0.638311614282429
0.762256809975952
-0.720704570412636
-0.41017873538658
-0.537038219161332
-0.599540651310235
-0.706886472180486
-0.9868268459104
-0.447799905203283
-0.285095373634249
-0.764094669371843
-0.273556384723634
-0.152468488551676
-0.501433361787349
0.999786907806993
-0.673556534107774
0.514162463136017
-0.0167607353068888
0.272536255419254
-0.603894344996661
0.686972538940609
0.444394669961184
0.936885287985206
0.375945223961025
-0.797185710631311
-0.262317674700171
0.128014955669641
-0.273465107660741
-0.212108843959868
0.110818657558411
0.668003486469388
0.975746268872172
0.668963526375592
-0.865382677409798
0.0959777534008026
-0.255493312608451
-0.922867086715996
0.0969101036898792
0.012717766687274
-0.655178332235664
1.0001
0
1
0
-7.7409148029983
-5.93783129937947
