Atriatix v0.002
42
0.00506650479303934
-4.23685124507648
456.304178251037
59.952626847584
405.358398969669
25
189
50
10
0.1
2
1
-0.672460281
0.941676085814834
0.048351972
0.322736823000014
-0.295136037
0.692392993718386
0.643899326
-0.882290461100638
-0.196983349
0.985148848965764
-0.954624941
-0.547757635824382
-0.69518905
0.606568083167076
0.548694298
0.119875776581466
-0.752226532
-0.406595172360539
-0.916766831
0.995517746545374
-0.353419224
0.719725530594587
-0.477258119
0.96500916685909
-0.984113444
0.486044699326158
-0.493976561
-0.596482592634857
-0.362710624
0.829163767397404
0.861127981
-0.328492005355656
0.914191089
-0.728536913171411
-0.773187266
-0.402955583296716
-0.341704147402197
-0.27160295471549
0.9650176060386
0.413166052661836
0.651499781291932
0.692942308261991
0.958106393460184
0.119094227440655
-0.673078781459481
0.0157491862773895
-0.615376382600516
-0.265983608551323
0.912821635138243
-0.000253872945904732
0.0673169852234423
-0.587801574729383
0.883167152758688
-0.972052667289972
-0.512824523728341
-0.111824930645525
0.0585806923918426
0.443213501945138
0.0572330527938902
-0.779231521300972
0.201434747781605
-0.101284302771091
-0.250112004112452
-0.695315097458661
0.448834783863276
0.897852336987853
0.6714878664352
-0.881560510955751
-0.572756739798933
0.742369312793016
-0.322069908957928
0.177359214983881
0.392494279425591
-0.392566768452525
0.625028172973543
0.160413940437138
-0.761051139328629
-0.0375922173261642
0.347393528092653
-0.820374411530793
-0.278459161985666
0.0560832303017378
0.959582945797592
-0.339194550178945
0.734463383909315
-0.314890969544649
-0.426738325040787
-0.695630387403071
0.990246157627553
0.964379573240876
-0.975867865141481
-0.905017483048141
0.942973078694195
-0.681876949965954
-0.297621748875827
0.828778634779155
0.299390725325793
0.410443445667624
-0.919624583330005
-0.87308772560209
-0.0383426421321929
-0.765934344381094
0.031416077632457
-0.595814489759505
-0.254517432767898
0.076033728197217
-0.466799055691808
-0.238495762459934
-0.28259245166555
0.579112231731415
-0.150154172908515
-0.729087647981942
-0.505024001467973
-0.382359253242612
0.786154097411782
-0.378045945428312
0.353545641060919
-0.793408516794443
0.10790477367118
-0.401885719038546
-0.516509627
1
0
0
0
-16.748399548
-5.561875356
