Atriatix v0.005
1
0.210288050819612
1.22208333333334
12.317974537037
2.79222222222221
11.114140625
91
86
10
36
0.1
2
1
0.820929152
-0.0664686821401119
-0.674472164
-0.235088461078703
-0.468801108
-0.428703738376498
-0.875831848
0.695862983353436
-0.681935197
-0.617033869028091
0.653203458
-0.885608819313347
-0.622926489
0.00789515487849712
-0.082489633
0.585406542755663
0.735413795
0.0952108167111874
-0.771355737
-0.503724158741534
0.977868732
-0.69142540358007
-0.896356983
0.925840762443841
-0.533091529
-0.198354162275791
0.517346316
0.281014586798847
-0.599326365
-0.117001259699464
0.101980625
-0.330293006263673
-0.447400662
0.0892424769699574
-0.612240221
0.478826991282403
-0.963570159394294
0.385094435885549
-0.321748813148588
0.126113970763981
0.940373816993087
-0.290843412280083
0.65425767051056
-0.545453113503754
-0.825849742162973
-0.415855022147298
-0.700035074260086
-0.261918439529836
-0.627325008157641
0.010322343558073
0.245104607660323
0.767466112039983
-0.799862165469676
0.360883856192231
-0.883116958197206
-0.0151154873892665
-0.101779638323933
0.498045988380909
0.995425560045987
-0.863821734674275
-0.577795692253858
-0.17141149379313
0.566486461553723
-0.59060379024595
0.00872058933600783
0.517599586397409
-0.934825401287526
0.528422451578081
-0.481111046392471
-0.420825941488147
-0.395555411931127
-0.229567582719028
0.400598251726478
-0.937185227870941
0.982103646267206
-0.624072966165841
0.613677337300032
0.054287089034915
0.560084050986916
-0.67990496661514
-0.638293410185725
0.709676500409842
-0.690268773119897
0.914253382943571
0.974220063071698
-0.95860063098371
0.616857456509024
-0.793884160928428
0.783048258628696
-0.325083203613758
0.94031121628359
0.647639627568424
-0.663448475766927
0.294901615008712
0.917812137398869
0.999200248159468
-0.204505922738463
-0.000391494482755661
0.0128015917725861
0.938844404183328
-0.145691346842796
0.282197238877416
0.296058902982622
-0.654628942720592
0.0315017788670957
-0.142240956425667
-0.544166817795485
0.723990607075393
0.672949671279639
-0.945203902199864
-0.369759210851043
-0.256687804125249
0.511834760662168
-0.0100958533585072
-0.844321582000703
0.352409138344228
0.128972839098424
-0.755591755732894
0.825001808349043
-0.553287523798645
0.157280834
1
0
1
0
5.234032422
14.984401623
