Atriatix v0.005
26
0.0453357323491702
0.138541666666647
51.60640625
0.288750000000007
38.8896484375
71
40
7
39
0.1
2
1
-0.0505588329397142
0.186218840070069
-0.433639495167881
0.489839233458042
0.928604431916028
-0.733114142902195
-0.631441571284086
0.868189921602607
0.522397591266781
0.0722221219912171
-0.79204853111878
-0.716989424079657
-0.542737494688481
0.90777677949518
-0.521015432197601
-0.459977997466922
-0.570716326590627
-0.908625329844654
0.457793646957725
0.954962402582169
0.192445070017129
0.769400510005653
-0.741373494733125
0.510691864416003
-0.780847394373268
-0.405588804744184
-0.903095657471567
0.547499980777502
-0.973227787297219
-0.267173768021166
0.202673907857388
0.705366590991616
-0.236066443379968
-0.828553709201515
0.228200273122638
-0.663074351847172
-0.849650628399104
-0.208450113423169
0.493450231384486
0.109882211312652
0.363900421652943
-0.820681816898286
0.91321632033214
0.0176325626671314
0.968736086506397
-0.358662077225745
0.949631470721215
-0.483162550255656
0.478140572551638
0.393932481296361
0.433824279811233
0.0106984525918961
0.645914748776704
-0.604928952641785
0.600464909803122
0.396687475964427
-0.919976392295212
-0.212394072674215
0.178951611276716
0.897479366511106
-0.727740648668259
0.422587974928319
-0.115012128371745
0.893837654963136
0.637670102063566
0.431410145945847
-0.843699811492115
-0.0217965766787529
0.657504238653928
0.315529177896678
-0.523753531742841
-0.0522627029567957
-0.280579642858356
0.522515394724905
-0.870934950653464
-0.0444354377686977
-0.251287143211812
0.977180636487901
0.730514350812882
-0.461026592180133
0.224303151015192
-0.46346568595618
-0.622346854303032
0.743316292762756
-0.326753496658057
-0.162682411260903
-0.238488540519029
-0.939635561779141
-0.762495511677116
-0.49513432290405
-0.913597906474024
-0.600134555250406
-0.593266922514886
0.192048280499876
-0.860377226490527
-0.186945965513587
-0.48916364973411
-0.582961860112846
-0.644701077137142
0.186865918338299
0.066035829950124
0.668657715432346
-0.783882938791066
-0.372395211830735
0.568205444607884
0.748053991235793
0.83669882779941
0.752812433987856
-0.172777886968106
-0.184548594988883
-0.927634370047599
-0.389908013865352
0.436081955675036
0.110732902772725
0.997043916489929
0.441634282469749
-0.531467869412154
-0.1834008814767
-0.905938923824579
-0.986802639439702
-0.0010317056439817
1
0
0
0
-19.3388864211738
-19.9283607769758
