Atriatix v0.002
52
0.0192369058033994
-0.487962510850693
120.806665491175
17.8667195638021
108.837690565321
35
46
50
63
0.1
1
1
-0.426806946
-0.0854776846244931
-0.43862366
-0.379047359805554
-0.083297082
-0.00851236097514629
-0.370974814
-0.19798105629161
0.179699497
-0.187430716119707
-0.146205666
0.46700524026528
-0.067986551
0.319449827075005
0.156743154
0.0344408019445837
0.082453243
-0.113017835654318
0.31618886
-0.333824634086341
-0.458414075
0.324593318626285
0.41222555
-0.322525650728494
0.209713189
-0.496335188858211
0.401126066
-0.403471873607486
0.211917766
0.220264595001936
-0.133498344
0.107750368770212
-0.447944876
0.152605551294982
0.244094461
0.363240447361022
-0.392434523673728
0.0226055476814508
0.0670778027269989
0.396784897428006
0.136981108924374
0.320924059487879
0.0287392933387309
-0.375227054115385
-0.277995984302834
0.204850353300571
-0.0905782503541559
-0.331598898861557
-0.183971151942387
0.428418233059347
-0.335403074277565
-0.018458194565028
-0.17901382339187
0.41412234865129
0.220947055378929
0.0186511497013271
-0.135618934640661
-0.174388932995498
-0.222670792369172
-0.0729093491099775
0.198401958448812
0.250730905681849
-0.342502545332536
-0.00176190817728639
0.392974879359826
-0.145702471025288
0.0114578523207456
0.361762423533946
-0.255362057359889
0.109968306496739
-0.0876687669660896
-0.342562269885093
-0.426888821879402
-0.0294085657224059
-0.354401188669726
-0.331128743942827
0.327436667634174
0.0864066183567047
0.237605601781979
0.153520496096462
-0.326436005765572
-0.0695276791229844
-0.479803350521252
0.353374347556382
-0.0147439960855991
-0.0593054313212633
0.278361072996631
-0.0793266748078167
-0.0898101201746613
0.0378323243930936
0.277758919866756
0.243043838534504
-0.0668714710045606
0.128854420036078
0.219005834544078
0.402421531733125
0.108037281548604
0.455023053102195
-0.0844094611238688
0.252138685900718
0.381020902423188
-0.105921154841781
0.242300125071779
0.346550683956593
0.175955915590748
-0.424097537063062
-0.348971838830039
-0.292423462029546
0.164693240774795
0.421027801930904
0.300840609008446
-0.337471520993859
0.393706142669544
0.461381732486188
0.0991745546925813
0.23760560946539
0.18905849265866
0.0526254083961248
0.201044751564041
-0.158573382068425
-0.488431657
0.9901
0
1
0
6.74944276
-4.737340487
