Atriatix v0.002
51
0.0206540447504303
3.79166666666666
116.763888888889
1.45833333333336
86.1875
160
111
-21
63
0.1
1
1
-0.049490953
-0.377049327362329
0.363638995
0.187264789827168
0.295230695
-0.0211750431917608
0.338520326
0.210119437426329
0.006236073
-0.210026519838721
0.037175808
-0.27051539439708
-0.208882094
-0.0572514566592872
0.383310302
-0.426398595795035
-0.410334272
-0.120982263702899
0.050861368
0.1851556757465
-0.269701014
-0.434170534368604
0.249826898
0.237916179001331
0.450757958
0.28636754443869
-0.381461933
-0.214400664903224
0.079927485
-0.263430155348033
-0.355747407
0.0523355361074209
0.42766851
0.161786011885852
0.283943316
0.224112016148865
0.17953243968077
-0.482150757219642
-0.292842923896387
-0.149432715028524
0.343233306193724
-0.10906287515536
0.332818921422586
-0.283487875945866
0.0437527515459806
-0.339403461199254
-0.418143385322765
0.292552145197988
0.213952819118276
0.140307623427361
0.0175204591359943
0.1241869116202
-0.0224284406285733
-0.320038197096437
-0.204726564930752
-0.231239378452301
-0.228523552184924
0.464628876652569
-0.405873351031914
0.13963935431093
-0.495949384523556
0.493988171685487
0.451295095263049
0.366989878937602
0.296586891869083
0.476798757445067
0.172048730542883
-0.465464974753559
-0.39543533953838
-0.375216276850551
0.236633860273287
-0.0983393825590611
-0.23431547335349
-0.419696482364088
0.376139838015661
0.470248970203102
0.271535798208788
-0.0378066482953727
0.23918607714586
0.00561394728720188
0.309771778294817
0.264139662962407
-0.178695624927059
-0.129087417386472
0.373667870881036
0.0899706431664526
-0.421108450042084
0.284408263862133
-0.0140625012572855
-0.0397641719318926
0.399607389932498
-0.141039521433413
-0.166319166077301
0.174449749756604
-0.148907085182145
-0.466883877292275
-0.138658659299836
0.463374651502818
0.379883950343356
0.253177371807396
0.118545131059363
0.415717265103012
0.382395014865324
0.0156211145222187
0.409698132658377
-0.0863853492774069
0.319848518585786
0.129244948737323
0.042216069297865
0.061284099239856
0.299024275271222
-0.193585259839892
0.220262253889814
0.341212097089738
-0.209295673528686
0.442788743413985
-0.11913180607371
-0.0177426463924348
0.407688078237697
0.194893285632133
0.019312009
0.9992
0
1
0
-4.519142183
-1.714944993
