Atriatix v0.002
51
0.0206540447504303
3.79166666666666
116.763888888889
1.45833333333336
86.1875
160
111
-21
63
0.1
1
0
0.106035186
0.36538649071008
0.344667935
0.160779832396656
-0.374736912
0.04430016502738
-0.242400694
0.339712617453188
0.203611362
-0.0840132804587483
-0.17662482
0.243393432814628
-0.213547648
0.104524666443467
-0.101527897
0.0846249270252883
0.339898908
-0.299023686908185
0.490691846
0.414867127779871
0.43350703
0.364400945603847
-0.298272677
-0.475432968232781
0.179423809
-0.294905425049365
-0.419138674
0.399152257014066
-0.050144305
-0.440568754449487
-0.063326942
-0.0349362422712147
-0.455267931
-0.484319093637168
0.403627501
-0.389797398354858
-0.268560870783404
0.300178844481707
-0.189577426528558
0.213165809866041
0.328499089693651
-0.11677831877023
0.146969116525725
0.165646259207278
0.255069694248959
0.41406493075192
-0.3231213146355
0.122371647041291
0.218139039119706
0.344397121109068
-0.00766584533266723
0.462957518640906
-0.0407092899549752
0.349665477871895
0.0582181366626173
-0.29995064297691
0.232914231484756
-0.0923718297854066
-0.457625788403675
0.318128735292703
-0.0622641716618091
-0.356491880491376
-0.0211240292992443
-0.222641468513757
0.073544500162825
-0.198876629583538
-0.438821128336713
-0.3331577940844
0.444988407893106
0.44936902448535
-0.387970093404874
0.241672141011804
0.284316573059186
0.283425736241043
0.0270100825000554
-0.171857956331223
0.214940889505669
0.130069771781564
0.238584714243189
-0.168501589912921
0.227693447610363
-0.483540370129049
0.497536530019715
0.330606053117663
-0.408345828996971
-0.0882257744669914
-0.481343410676345
0.493902692105621
-0.12857623421587
-0.498922363854945
-0.212431986583397
0.301017605233937
0.472716982243583
-0.399214589968324
0.0755575282964855
0.304429344367236
0.388151189079508
0.0751074375584722
-0.0407101798336953
0.415537512395531
0.0651052601169795
0.362842384725809
0.392279703402892
-0.0504763969220221
-0.432476226473227
-0.026101310737431
-0.375002898974344
0.413375903386623
0.453541523544118
-0.435082880780101
0.0204798376653343
-0.228546541649848
0.040803344687447
-0.0466301059350371
-0.437670754967257
0.172964098397642
-0.018645751522854
-0.320488631725311
0.101963579887524
0.375731529202312
0.317974873
0.9998
0
1
1
-0.488894451
-7.15991491
