Atriatix v0.002
42
0.0162877502544961
1.75000000000003
145.006944444444
0
107.442708333333
25
67
24
10
0.1
2
1
0.256292876
0.772382064722478
0.719590645
0.182513142004609
-0.903144357
0.993878376670182
0.238843979
-0.570564441382885
-0.456269167
0.0844917399808764
0.947707228
0.125780841335654
-0.849163191
0.573091306723654
0.786912871
-0.0428550206124783
-0.244178514
0.196256495080888
0.681057218
0.255005614832044
-0.941446458
0.165733044035733
-0.249119318
-0.566876590251923
0.678129256
-0.171532806940377
0.48843868
0.238396538421512
-0.71785503
0.687967986799777
0.738913154
-0.965081695467234
-0.118014831
-0.744252295233309
-0.167185281
-0.160012116655707
0.887876200024039
0.701590416021645
0.712325440254062
0.330824188888073
-0.982544399332255
-0.2286013411358
0.395532227586955
-0.459267133846879
0.651607064995915
-0.0586317544803023
-0.377699139062315
-0.536523591727018
0.731311027426273
0.277241191826761
-0.974459361750633
-0.715402601286769
0.7892608740367
-0.0326132280752063
-0.328390351030976
-0.541555121541023
0.209994778502733
0.998460697941482
0.313610672485083
-0.650346161797643
-0.687706836964935
-0.0576075753197074
0.201327701564878
0.657827835530043
-0.652408215682954
0.323450579307973
0.791553090792149
-0.655825262889266
-0.991839555557817
-0.465863483957946
0.202555330004543
-0.721154414117336
-0.461202673148364
0.768655995838344
0.756437442731112
-0.672273406758904
-0.954211042728275
0.942718991078436
0.453136009629816
0.0974342562258244
-0.903114210348576
0.0684176152572036
-0.280189183074981
-0.942736400291324
-0.793956582900137
0.0529321776703
-0.720624870155007
-0.743160456418991
-0.703320592176169
-0.610184636898339
-0.518083408940583
-0.641778605058789
0.73719576606527
0.711604536511004
-0.0572412558831274
-0.798789534717798
-0.95748298196122
0.672512172721326
0.830913181882352
-0.379389187321067
-0.164606077130884
0.129944411106408
-0.34832768002525
-0.265806891024113
0.161222808528692
-0.906402264721692
-0.132907204795629
-0.579888368025422
-0.249869467224926
-0.58911622222513
0.198119489010423
-0.79747561737895
-0.679924930911511
0.657432249747217
-0.0478998241014779
0.264166327193379
-0.485288282390684
-0.798578004352748
0.219440796878189
-0.195374235510826
0.569774941
1.0006
0
0
0
18.209803458
-14.336972842
