Atriatix v0.005
65
0.038522688341921
-7.14145833333333
53.4289076967592
29.2061631944444
74.6339377170139
-11
4
-30
10
1.8
2
1
0.393648104
-0.710224844515324
-0.832351334
0.268305147998035
0.453520484
-0.083296800032258
0.055353998
0.048329227603972
0.941987363
0.705066878348589
-0.251196827
-0.618849107064307
0.471084017
-0.638961343094707
-0.491161009
-0.279113511554897
-0.439096114
0.232644334435463
-0.686616584
-0.353889328427613
0.049144476
0.732492534443736
0.846085033
0.178093717433512
-0.442706118
-0.956292677670717
0.900982138
0.179116948507726
0.357207935
-0.172186052426696
0.796931448
-0.200383710674942
0.481827976
-0.846672289073467
-0.104447566
0.44290394615382
-0.576210745144635
0.363795956596732
-0.183562712278217
0.216218211688101
-0.734330045524985
-0.895956810563803
0.443376500625163
0.336851394735277
0.58563083736226
0.223369317129254
-0.684649919625372
0.4621058749035
0.982195520307869
-0.225548982620239
0.496034384239465
-0.588171717710793
0.56192137254402
-0.173303769901395
-0.484425419475883
0.252271802164614
-0.766288960818201
0.312801774591207
-0.521627265494317
-0.78996339533478
-0.846485410351306
0.627264091745019
-0.0693584806285799
0.384838399477303
0.163172291126102
0.195593111217022
0.58147355215624
0.729855115525425
0.567148006986827
-0.26702075637877
0.47117635468021
0.268401705659926
0.0909032202325761
-0.588836502283812
-0.319377060513943
-0.98431692365557
0.364661681931466
0.652260722592473
-0.824631979223341
0.574375142343342
0.776314684655517
0.768285974860191
0.878279850352556
0.872784006409347
0.0372169609181583
0.165134010836482
0.564437678549439
-0.985666736029089
0.304623206611723
0.329761903733015
0.672044840175658
-0.292870567180216
-0.795484770555049
-0.680675214156508
0.623107465449721
-0.757644492201507
-0.401430277619511
-0.0289852842688561
0.747628815937787
-0.50975735951215
-0.56098333792761
0.551352670416236
0.405069245491177
0.882369943894446
0.555138332303613
0.0636836625635624
-0.603178213816136
-0.150957577861846
-0.284841027576476
0.93262498266995
0.263453359249979
0.68049702513963
-0.192724949214607
0.284217566251755
-0.43953838897869
0.280686828307807
-0.516423836816102
-0.459469513967633
0.7062973738648
0.782393337227404
0.110606556
1.0007
0
0
0
1.094937138
-1.007194496
0
1
0
0
0
0
1
1
