Atriatix v0.005
65
0.01
0
233.333333333333
0
175
-49
-17
25
10
1.8
2
1
-0.990921489
0.643072168342769
0.306069575
-0.223856398835778
-0.148344265
-0.896538428030908
0.476392371
-0.876066651195288
0.842967678
0.179259187541902
0.738679323
0.287409352138638
-0.901711707
-0.465762878768146
-0.65119732
-0.269008547067642
0.365009755
0.531821104697883
-0.243784681
-0.636434869840741
0.99566493
0.475202799774706
-0.320487733
-0.708710882812738
0.586965453
0.177530228160322
0.832382854
-0.177643856033683
0.878605443
0.830926326103508
-0.856296523
-0.0575431957840919
-0.994419164
0.643085624091327
-0.184478991
-0.0203034523874521
-0.302225650753826
0.21019905153662
0.0626768148504198
0.677715796977282
-0.479443933349103
0.0949568664655089
0.877821404021233
-0.604236809536815
0.750149647239596
0.578379710204899
-0.334430298302323
0.654471948742867
0.977514163125306
0.0542277870699763
0.0895469482056797
0.746089367195964
-0.965508440043777
-0.965261830948293
-0.0239247777499259
0.627909433096647
0.335969742853194
-0.763559774495661
0.618250589352101
-0.182341432198882
-0.768188712652773
-0.285200822167099
-0.675839124713093
0.509584493935108
0.462297775316983
0.516437779180706
-0.447005935478956
-0.370001772418618
0.310839755926281
0.817686119116843
-0.517212676350027
-0.948980804532766
0.547702331561595
-0.981790446676314
0.353566649835557
0.68127347715199
0.758496368769556
0.75846475828439
0.429627144243568
-0.347704827785492
-0.848814665805548
-0.67026608902961
0.924703910481185
-0.680619107559323
0.435357755515724
-0.554513006471097
0.73378357803449
0.295647379010916
-0.132484692614526
-0.157177777029574
-0.684693549294025
0.238042244687676
-0.943873477634042
0.68273460585624
-0.432490719947964
-0.395942158997059
-0.379803873132914
0.217962617985904
-0.957341336179525
-0.902101749554276
-0.704899997916073
-0.302836990915239
0.342925069388002
-0.975150596350431
-0.420564230065793
-0.0258362675085664
0.0416474821977317
-0.727397678419948
0.516639003995806
-0.208955000154674
-0.0262613208033144
-0.861720517277718
0.705115065444261
0.203798460774124
-0.761018872726709
0.719914315268397
-0.869363436009735
0.119314507581294
-0.238036493305117
0.0911338143050671
-0.085243556
1.0007
0
0
0
0.82489541
1.504815719
0
1
0
0
0
0
1
1
