Atriatix v0.005
65
0.0181540370039788
-19.8818229166667
108.647899305555
14.12796875
110.525260416667
65
26
25
10
1.8
2
1
-0.140907314
0.179087983444333
0.567240531
-0.255706275813282
0.788062745
-0.81532296538353
0.482863933
-0.819276657886803
0.361383244
0.505188448354602
-0.154800022
-0.757529675029218
0.176311319
-0.609908495098352
0.717513036
0.825446366332471
-0.889645342
-0.283329268917441
-0.56504379
-0.150930675677955
-0.521135731
0.152989767491817
0.294390671
0.0803599013015628
-0.969482117
-0.489691639319062
-0.808529378
-0.305633551441133
-0.375556024
-0.496297519654036
0.298743878
-0.96033210400492
-0.067263585
-0.360362438485026
-0.621481915
-0.422295193187892
0.0121097355149686
-0.550755128264427
-0.175757452379912
0.464688557200134
0.088445037137717
-0.213948996737599
0.0241556973196566
-0.255161358974874
0.39797650789842
-0.593089509755373
-0.859051826875657
-0.376301900483668
-0.571131427306682
-0.445108449086547
0.901191534940153
-0.209722924046218
0.406933666672558
-0.237135045230389
-0.511717400979251
-0.743225504644215
0.369240633677691
0.596546014770865
0.132653398904949
-0.315372130833566
0.669363749679178
-0.44426029548049
-0.507003228645772
-0.334358775056899
0.258022371213883
0.852538900449872
-0.577742432709783
-0.073058838956058
-0.417138791177422
0.285225749015808
0.212139487732202
-0.0714889736846089
-0.548878774512559
0.926626158878207
-0.090122455265373
0.822053224779665
-0.301048839930445
-0.154332581907511
0.801026147324592
0.239929645322263
-0.988890324253589
0.580888936296105
0.652012812439352
0.882930216379464
-0.265191866550595
0.584656111896038
0.80620750086382
-0.624380414374173
0.0314439903013408
-0.643172675743699
-0.272742421831936
0.358011924661696
0.209974823053926
-0.513375949114561
-0.916561599355191
-0.717676141299307
0.585682976525277
-0.678545890375972
-0.0332304737530649
-0.116444478742778
0.708080837037414
0.481438025832176
-0.65935344947502
0.792649733833969
0.301706730853766
-0.0616114754229784
-0.690261432435364
0.2609793106094
0.763561447616666
0.877993147820234
0.305901255924255
0.464912488125265
0.560935388784856
-0.936050003394484
-0.21614441042766
-0.640793520025909
0.37337634107098
-0.0771934017539024
0.520382173825055
0.54797915648669
0.322547875
1.0001
0
0
0
0.136503797
-1.778437587
0
1
0
1
0
0
0
1
