Atriatix v0.005
49
0.0969293097572981
0.478880208333351
24.55140625
-1.22919270833333
16.8252018229167
74
48
62
19
0.5
2
1
0.902331074
0.125063937157392
-0.192631516
0.80281503405422
0.90328015
0.539833957329392
0.484076174
-0.0356866894289851
-0.581069975
-0.249327324330807
-0.839799158
-0.250486095435917
0.842428647
-0.271309087052941
-0.78184794
0.204742022790015
0.576788766
0.845886025577784
0.802584578
0.976611263118684
0.971777591
0.934590147808194
0.992639537
0.548229669220746
-0.62005294
0.942621558904648
0.952701301
0.367983910255134
0.675554737
0.902889175340533
0.655419922
0.839651585556567
-0.919874663
0.43620016798377
0.270749223
0.642591654323041
0.638402875047177
0.50602070428431
-0.185249490197748
-0.649237009696662
0.18844343861565
-0.356060184538364
-0.848088092636317
-0.180678938515484
-0.830401413608342
0.36458638869226
0.944733320269734
-0.692457265220583
-0.887860628310591
-0.0112507157027721
-0.355672981124371
0.806829205714166
0.152270990889519
0.593450577929616
0.115783850196749
0.542537053115666
0.41628805687651
-0.692278072237968
-0.00794492615386844
0.118387418799102
0.61762049747631
0.672834066674113
0.35009982297197
0.272203312255442
0.710520078893751
-0.714270580559969
-0.196951809804887
-0.288274959661067
-0.0558624458499253
-0.555592155084014
-0.397870061453432
0.999253761954606
0.160740436520427
-0.985984496772289
-0.157881162595004
-0.046126832254231
0.681821397971362
-0.767613152042031
-0.635957376565784
-0.460000715218484
-0.374152707401663
0.673789743334055
0.448908586520702
-0.288991593755782
-0.998601194936782
0.0896237064152956
-0.103805219288915
-0.823306853882968
-0.580549275968224
-0.655178725719452
0.580856860149652
-0.436703381128609
0.76854284061119
0.168702496215701
0.0826005400158465
0.934874744154513
-0.303408528212458
0.939032550901175
-0.518830317538232
0.144736676476896
-0.756908391136676
0.21803248859942
-0.0885999924503267
-0.0142866401001811
0.465459690894932
0.259093098342419
0.971788429189473
-0.391995792277157
0.403267003130168
0.202941900119185
-0.419671983923763
-0.826648092828691
-0.775886299554259
-0.817986737936735
0.371358577627689
0.214295349083841
-0.105106544215232
0.051771642640233
-0.772817125078291
-0.332749317400157
0.222198734
1.0001
0
0
0
1.935475916
0.076396913
1
1
0
0
0
0
0
0
