Atriatix v0.005
62
0.0290556900726392
1.16666666666667
81.4722222222222
0.583333333333329
60.8125
65
48
-25
10
1.8
2
1
0.05351027
0.0913185337558389
-0.371088872
-0.445740628987551
0.341071483
0.441209181211889
0.100896637
0.337395155802369
0.425525966
-0.028968739323318
0.606114747
-0.264178864657879
0.738317408
0.933218072168529
0.382806174
-0.678888002410531
-0.460825281
0.135691502131522
0.516967071
-0.744817908853292
0.797337611
0.722989953123033
0.722988668
-0.431516332551837
-0.542452191
0.881224398501217
0.743437552
0.533908247947693
0.184555889
-0.0643874378874898
0.711726561
-0.144858883693814
0.179893738
0.809341222979128
-0.678573693
0.888218935579062
-0.835337358992547
0.31250664498657
-0.854032669682056
0.615040490403771
0.122086989227682
-0.770116868428886
0.952482865657657
0.587580554187298
0.893583618570119
0.676269705407321
-0.646457754541188
0.561556881293654
-0.777903230395168
-0.311835086904466
0.640524921473116
-0.961699675768614
0.336448673624545
-0.479480245150626
0.142385113518685
-0.566421924158931
0.67045576358214
0.617318739183247
0.953557082917541
-0.907879963517189
-0.189439489971846
0.724739062599838
0.374751030933112
0.86659830622375
-0.734271117951721
-0.884362085722387
0.910389622207731
-0.520190197974443
-0.846636566799134
0.394117905758321
-0.833564866799861
-0.611188000068068
0.39498201245442
-0.151079374365509
0.492357225622982
-0.630238197743893
0.515412100125104
0.824398319236934
-0.289008655119687
-0.457792470231652
-0.360749231185764
-0.922186306677759
0.78003774350509
-0.948415961116552
-0.22165973065421
-0.408282154239714
0.72895112959668
-0.871339036151767
-0.995990758296102
-0.189843679778278
-0.285029059741646
0.744694083929062
0.597829550970346
-0.232546714134514
-0.457957759965211
0.581029815599322
-0.225361251737922
0.0783238420262933
-0.513622755650431
-0.468087170273066
-0.928421843331307
-0.741935552097857
0.772407467942685
0.459246793761849
-0.00310341781005263
0.341571477241814
-0.457123501691967
0.41805823892355
-0.967730350326747
-0.730062101967633
0.666823394130915
-0.928586447611451
0.582384763751179
0.0133780771866441
-0.770793291274458
-0.486460905522108
-0.034458305221051
-0.100769289769232
-0.954080861527473
0.219894440844655
0.03901879
1
0
0
0
-1.772420248
0.095885593
0
1
0
0
1
0
0
0
