Atriatix v0.005
70
0.889170456674801
0.371895760995379
2.99606451943481
0.377276909722207
2.34540347855178
57
55
70
10
1
2
1
0.707510666
-0.847730618901551
0.632550329
0.787583319470286
0.186846575
-0.91656048502773
-0.5332867
-0.620743442326784
-0.104010943
0.615455253981054
0.220418017
-0.573542868718505
-0.421888766
0.520334553904831
0.534515978
-0.462748877704144
-0.207413516
0.690159152261913
0.84549009
0.274424156174064
0.755198403
0.71312437299639
-0.859296309
-0.693273480981588
0.969366391
-0.595332943834364
0.489040199
0.437071399763226
-0.757863139
-0.737578387372196
-0.809316611
-0.273563742637634
0.178690076
0.313754203729332
-0.110211716
0.432217312976718
-0.250887387897819
0.324625045992434
0.493792688008398
0.979787167161703
0.0211854395456612
0.83852884080261
0.243119325023144
0.686005542054772
0.652937638107687
-0.985736670903862
0.775018618907779
0.453433148562908
-0.761284268926829
-0.26872402895242
0.525302089285105
0.153998678550124
-0.897481353487819
0.931338750757277
-0.688283624593169
0.920868922024965
-0.367651696782559
-0.334698894061148
0.442707884591073
-0.932727990671992
0.749325821641833
0.813670982606709
0.195328065659851
0.851023778319359
-0.394676640164107
0.949774014763534
-0.993970692623407
-0.196492733433843
0.102861574385315
0.314240829087794
-0.781898538116366
0.841855328530073
0.331022706348449
0.369572474621236
0.729498993139714
-0.116913622245193
-0.4888707078062
0.903533977456391
0.384808750357479
0.178943254053593
0.545938499737531
-0.849873979575932
-0.544891633559018
-0.909814784303308
0.76610208908096
-0.103115252219141
0.0494652814231813
-0.480916943401098
-0.0323580014519393
0.0472596948966384
-0.198173609096557
0.718867348507047
-0.665808444377035
-0.393180157057941
0.677048319485038
-0.301120191812515
-0.66224768711254
-0.437962201423943
0.239818319212645
0.944177789613605
-0.788283491041511
-0.379597901366651
0.230215793009847
0.668341901153326
-0.910094845574349
-0.719392360188067
-0.210335556883365
0.3182367477566
0.405371742788702
0.201574233360589
-0.818974955473095
0.54947479814291
0.642721586395055
0.339043284766376
0.346578843425959
-0.608666623011231
-0.962303222622722
0.818502598442137
-0.852348419371992
0.819874782115221
0.317776774
1
0
0
0
-1.973621385
1.25925628
0
0
0
0
1
0
0
0
